Time,ECG
0.0,-1.0
0.002,-0.9411764705882353
0.004,-0.8235294117647058
0.006,-0.8823529411764706
0.008,-1.1176470588235294
0.01,-1.0588235294117647
0.012,-1.1764705882352942
0.014,-1.1764705882352942
0.016,-1.1764705882352942
0.018000000000000002,-1.0
0.02,-0.7058823529411765
0.022,-0.5294117647058824
0.024,-0.6470588235294118
0.026000000000000002,-0.7058823529411765
0.028,-0.8235294117647058
0.03,-0.9411764705882353
0.032,-1.0
0.034,-0.9411764705882353
0.036000000000000004,-0.8235294117647058
0.038,-0.47058823529411764
0.04,-0.5882352941176471
0.042,-0.5294117647058824
0.044,-0.47058823529411764
0.046,-0.47058823529411764
0.048,-0.6470588235294118
0.05,-0.7058823529411765
0.052000000000000005,-0.6470588235294118
0.054,-0.6470588235294118
0.056,-0.6470588235294118
0.058,-0.5294117647058824
0.06,-0.47058823529411764
0.062,-0.5294117647058824
0.064,-0.47058823529411764
0.066,-0.35294117647058826
0.068,-0.4117647058823529
0.07,-0.5294117647058824
0.07200000000000001,-0.6470588235294118
0.074,-0.6470588235294118
0.076,-0.5882352941176471
0.078,-0.23529411764705882
0.08,-0.17647058823529413
0.082,-0.11764705882352941
0.084,0.058823529411764705
0.08600000000000001,0.0
0.088,-0.058823529411764705
0.09,-0.29411764705882354
0.092,-0.4117647058823529
0.094,-0.35294117647058826
0.096,-0.35294117647058826
0.098,-0.17647058823529413
0.1,-0.058823529411764705
0.10200000000000001,0.0
0.10400000000000001,0.11764705882352941
0.106,0.23529411764705882
0.108,0.0
0.11,-0.058823529411764705
0.112,0.058823529411764705
0.114,0.058823529411764705
0.116,0.11764705882352941
0.11800000000000001,0.29411764705882354
0.12,0.47058823529411764
0.122,0.6470588235294118
0.124,0.7058823529411765
0.126,0.5294117647058824
0.128,0.47058823529411764
0.13,0.5294117647058824
0.132,0.47058823529411764
0.134,0.47058823529411764
0.136,0.8235294117647058
0.138,0.8823529411764706
0.14,1.0588235294117647
0.14200000000000002,1.2352941176470589
0.14400000000000002,1.2352941176470589
0.146,1.3529411764705883
0.148,1.2352941176470589
0.15,1.1764705882352942
0.152,1.1764705882352942
0.154,1.1176470588235294
0.156,1.4705882352941178
0.158,1.8235294117647058
0.16,1.8823529411764706
0.162,1.8823529411764706
0.164,2.0588235294117645
0.166,2.0588235294117645
0.168,1.8235294117647058
0.17,1.8823529411764706
0.17200000000000001,1.7647058823529411
0.17400000000000002,1.7647058823529411
0.176,1.8823529411764706
0.178,2.1176470588235294
0.18,2.235294117647059
0.182,2.235294117647059
0.184,2.3529411764705883
0.186,2.235294117647059
0.188,2.1176470588235294
0.19,2.0588235294117645
0.192,1.9411764705882353
0.194,1.8823529411764706
0.196,1.9411764705882353
0.198,1.8235294117647058
0.2,1.9411764705882353
0.202,1.9411764705882353
0.20400000000000001,2.0
0.20600000000000002,1.7058823529411764
0.20800000000000002,1.588235294117647
0.21,1.2941176470588236
0.212,1.0588235294117647
0.214,0.8235294117647058
0.216,0.8823529411764706
0.218,1.0
0.22,1.0
0.222,0.8235294117647058
0.224,0.8235294117647058
0.226,0.5882352941176471
0.228,0.47058823529411764
0.23,0.29411764705882354
0.232,0.058823529411764705
0.234,-0.058823529411764705
0.23600000000000002,0.0
0.23800000000000002,0.0
0.24,0.058823529411764705
0.242,0.11764705882352941
0.244,0.0
0.246,0.11764705882352941
0.248,0.17647058823529413
0.25,0.35294117647058826
0.252,0.4117647058823529
0.254,0.5294117647058824
0.256,0.7647058823529411
0.258,1.0
0.26,1.0588235294117647
0.262,1.411764705882353
0.264,1.3529411764705883
0.266,1.0588235294117647
0.268,1.0
0.27,0.8235294117647058
0.272,0.9411764705882353
0.274,0.9411764705882353
0.276,1.0588235294117647
0.278,1.1176470588235294
0.28,1.2941176470588236
0.28200000000000003,1.3529411764705883
0.28400000000000003,1.5294117647058822
0.28600000000000003,1.3529411764705883
0.28800000000000003,1.1764705882352942
0.29,1.1176470588235294
0.292,1.1176470588235294
0.294,1.1176470588235294
0.296,1.1764705882352942
0.298,1.2941176470588236
0.3,1.411764705882353
0.302,1.4705882352941178
0.304,1.6470588235294117
0.306,1.588235294117647
0.308,1.3529411764705883
0.31,1.3529411764705883
0.312,1.3529411764705883
0.314,1.3529411764705883
0.316,1.4705882352941178
0.318,1.5294117647058822
0.32,1.4705882352941178
0.322,1.6470588235294117
0.324,1.6470588235294117
0.326,1.6470588235294117
0.328,1.5294117647058822
0.33,1.2352941176470589
0.332,1.1764705882352942
0.334,1.1764705882352942
0.336,1.5294117647058822
0.338,1.6470588235294117
0.34,1.588235294117647
0.342,1.7647058823529411
0.34400000000000003,1.7058823529411764
0.34600000000000003,1.5294117647058822
0.34800000000000003,1.4705882352941178
0.35000000000000003,1.4705882352941178
0.352,1.3529411764705883
0.354,1.411764705882353
0.356,1.4705882352941178
0.358,1.6470588235294117
0.36,1.6470588235294117
0.362,1.7647058823529411
0.364,1.7058823529411764
0.366,1.6470588235294117
0.368,1.588235294117647
0.37,1.6470588235294117
0.372,1.4705882352941178
0.374,1.4705882352941178
0.376,1.588235294117647
0.378,1.7058823529411764
0.38,1.7058823529411764
0.382,1.6470588235294117
0.384,1.588235294117647
0.386,1.411764705882353
0.388,1.411764705882353
0.39,1.2941176470588236
0.392,1.3529411764705883
0.394,1.411764705882353
0.396,1.588235294117647
0.398,1.588235294117647
0.4,1.5294117647058822
0.402,1.588235294117647
0.404,1.5294117647058822
0.406,1.2941176470588236
0.40800000000000003,1.2941176470588236
0.41000000000000003,1.2941176470588236
0.41200000000000003,1.2352941176470589
0.41400000000000003,1.3529411764705883
0.41600000000000004,1.4705882352941178
0.418,1.5294117647058822
0.42,1.3529411764705883
0.422,1.411764705882353
0.424,1.3529411764705883
0.426,1.2352941176470589
0.428,1.1764705882352942
0.43,1.2352941176470589
0.432,1.0588235294117647
0.434,1.1764705882352942
0.436,1.2352941176470589
0.438,1.2941176470588236
0.44,1.411764705882353
0.442,1.588235294117647
0.444,1.411764705882353
0.446,1.2941176470588236
0.448,1.1176470588235294
0.45,1.1764705882352942
0.452,1.1176470588235294
0.454,1.1764705882352942
0.456,1.2941176470588236
0.458,1.2941176470588236
0.46,1.3529411764705883
0.462,1.3529411764705883
0.464,1.1176470588235294
0.466,0.9411764705882353
0.468,0.8823529411764706
0.47000000000000003,0.8235294117647058
0.47200000000000003,0.8235294117647058
0.47400000000000003,0.8823529411764706
0.47600000000000003,1.0588235294117647
0.47800000000000004,1.0
0.48,1.1764705882352942
0.482,1.4705882352941178
0.484,1.2941176470588236
0.486,1.2352941176470589
0.488,0.8823529411764706
0.49,0.9411764705882353
0.492,0.7647058823529411
0.494,0.8823529411764706
0.496,0.9411764705882353
0.498,1.0588235294117647
0.5,1.1764705882352942
0.502,1.3529411764705883
0.504,1.2352941176470589
0.506,1.0588235294117647
0.508,1.0
0.51,1.0588235294117647
0.512,1.0
0.514,1.1176470588235294
0.516,1.2941176470588236
0.518,1.588235294117647
0.52,1.5294117647058822
0.522,1.588235294117647
0.524,1.4705882352941178
0.526,1.411764705882353
0.528,1.2941176470588236
0.53,1.2352941176470589
0.532,1.1176470588235294
0.534,1.2941176470588236
0.536,1.6470588235294117
0.538,1.588235294117647
0.54,1.6470588235294117
0.542,1.6470588235294117
0.544,1.5294117647058822
0.546,1.4705882352941178
0.548,1.411764705882353
0.55,1.2352941176470589
0.552,1.1764705882352942
0.554,1.411764705882353
0.556,1.7647058823529411
0.558,1.8823529411764706
0.56,1.8823529411764706
0.562,2.0
0.5640000000000001,1.8823529411764706
0.5660000000000001,1.411764705882353
0.5680000000000001,1.3529411764705883
0.5700000000000001,1.3529411764705883
0.5720000000000001,1.1176470588235294
0.5740000000000001,1.1176470588235294
0.5760000000000001,1.1764705882352942
0.578,1.1176470588235294
0.58,1.0588235294117647
0.582,1.0588235294117647
0.584,1.0
0.586,0.6470588235294118
0.588,0.7647058823529411
0.59,0.7058823529411765
0.592,0.7647058823529411
0.594,0.8823529411764706
0.596,0.9411764705882353
0.598,0.9411764705882353
0.6,1.1176470588235294
0.602,0.8823529411764706
0.604,0.6470588235294118
0.606,0.5882352941176471
0.608,0.5294117647058824
0.61,0.4117647058823529
0.612,0.5294117647058824
0.614,0.5294117647058824
0.616,0.6470588235294118
0.618,0.7058823529411765
0.62,0.7058823529411765
0.622,0.7058823529411765
0.624,0.7058823529411765
0.626,0.5882352941176471
0.628,0.4117647058823529
0.63,0.23529411764705882
0.632,0.29411764705882354
0.634,0.4117647058823529
0.636,0.5294117647058824
0.638,0.6470588235294118
0.64,0.7058823529411765
0.642,0.6470588235294118
0.644,0.4117647058823529
0.646,0.29411764705882354
0.648,0.35294117647058826
0.65,0.23529411764705882
0.652,0.35294117647058826
0.654,0.5882352941176471
0.656,0.35294117647058826
0.658,0.47058823529411764
0.66,0.5882352941176471
0.662,0.47058823529411764
0.664,0.29411764705882354
0.666,0.0
0.668,-0.11764705882352941
0.67,-0.29411764705882354
0.672,-0.35294117647058826
0.674,-0.29411764705882354
0.676,-0.17647058823529413
0.678,-0.058823529411764705
0.68,0.35294117647058826
0.682,0.7647058823529411
0.684,1.2941176470588236
0.686,1.8823529411764706
0.6880000000000001,2.3529411764705883
0.6900000000000001,3.0
0.6920000000000001,3.9411764705882355
0.6940000000000001,5.0
0.6960000000000001,6.235294117647059
0.6980000000000001,7.588235294117647
0.7000000000000001,8.470588235294118
0.7020000000000001,8.647058823529411
0.704,8.058823529411764
0.706,7.411764705882353
0.708,6.705882352941177
0.71,5.705882352941177
0.712,4.823529411764706
0.714,3.9411764705882355
0.716,2.7058823529411766
0.718,1.1764705882352942
0.72,0.11764705882352941
0.722,-0.7058823529411765
0.724,-1.1764705882352942
0.726,-1.1764705882352942
0.728,-1.0588235294117647
0.73,-1.0
0.732,-0.7058823529411765
0.734,-0.23529411764705882
0.736,0.11764705882352941
0.738,0.4117647058823529
0.74,0.47058823529411764
0.742,0.4117647058823529
0.744,0.17647058823529413
0.746,-0.058823529411764705
0.748,-0.23529411764705882
0.75,-0.29411764705882354
0.752,-0.11764705882352941
0.754,0.0
0.756,0.058823529411764705
0.758,0.29411764705882354
0.76,0.29411764705882354
0.762,0.23529411764705882
0.764,0.0
0.766,0.058823529411764705
0.768,-0.17647058823529413
0.77,-0.23529411764705882
0.772,-0.11764705882352941
0.774,-0.11764705882352941
0.776,0.0
0.778,0.11764705882352941
0.78,0.0
0.782,0.058823529411764705
0.784,0.058823529411764705
0.786,-0.058823529411764705
0.788,0.0
0.79,-0.11764705882352941
0.792,0.0
0.794,0.17647058823529413
0.796,0.23529411764705882
0.798,0.29411764705882354
0.8,0.47058823529411764
0.802,0.29411764705882354
0.804,0.11764705882352941
0.806,0.0
0.808,-0.058823529411764705
0.81,-0.058823529411764705
0.812,0.058823529411764705
0.8140000000000001,0.29411764705882354
0.8160000000000001,0.29411764705882354
0.8180000000000001,0.35294117647058826
0.8200000000000001,0.29411764705882354
0.8220000000000001,0.11764705882352941
0.8240000000000001,0.23529411764705882
0.8260000000000001,0.058823529411764705
0.8280000000000001,0.11764705882352941
0.8300000000000001,0.058823529411764705
0.8320000000000001,0.17647058823529413
0.834,0.23529411764705882
0.836,0.4117647058823529
0.838,0.47058823529411764
0.84,0.5882352941176471
0.842,0.5882352941176471
0.844,0.5294117647058824
0.846,0.47058823529411764
0.848,0.29411764705882354
0.85,0.35294117647058826
0.852,0.35294117647058826
0.854,0.47058823529411764
0.856,0.5294117647058824
0.858,0.6470588235294118
0.86,0.7058823529411765
0.862,0.7647058823529411
0.864,0.7647058823529411
0.866,0.8235294117647058
0.868,0.8235294117647058
0.87,0.7647058823529411
0.872,0.9411764705882353
0.874,1.1176470588235294
0.876,1.2352941176470589
0.878,1.2352941176470589
0.88,1.411764705882353
0.882,1.3529411764705883
0.884,1.3529411764705883
0.886,1.2941176470588236
0.888,1.1764705882352942
0.89,1.1764705882352942
0.892,1.3529411764705883
0.894,1.5294117647058822
0.896,1.7647058823529411
0.898,1.8235294117647058
0.9,1.8823529411764706
0.902,1.7647058823529411
0.904,1.8823529411764706
0.906,1.9411764705882353
0.908,1.8235294117647058
0.91,1.8823529411764706
0.912,2.0588235294117645
0.914,2.3529411764705883
0.916,2.411764705882353
0.918,2.4705882352941178
0.92,2.411764705882353
0.922,2.2941176470588234
0.924,2.176470588235294
0.926,2.1176470588235294
0.928,2.1176470588235294
0.93,2.1176470588235294
0.932,2.1176470588235294
0.934,2.3529411764705883
0.936,2.411764705882353
0.9380000000000001,2.411764705882353
0.9400000000000001,2.2941176470588234
0.9420000000000001,2.0
0.9440000000000001,1.7647058823529411
0.9460000000000001,1.588235294117647
0.9480000000000001,1.5294117647058822
0.9500000000000001,1.4705882352941178
0.9520000000000001,1.5294117647058822
0.9540000000000001,1.3529411764705883
0.9560000000000001,1.5294117647058822
0.9580000000000001,1.5294117647058822
0.96,1.3529411764705883
0.962,1.1176470588235294
0.964,0.9411764705882353
0.966,0.8235294117647058
0.968,0.6470588235294118
0.97,0.35294117647058826
0.972,0.17647058823529413
0.974,0.29411764705882354
0.976,0.29411764705882354
0.978,0.23529411764705882
0.98,0.11764705882352941
0.982,-0.058823529411764705
0.984,-0.23529411764705882
0.986,-0.29411764705882354
0.988,-0.4117647058823529
0.99,-0.35294117647058826
0.992,-0.11764705882352941
0.994,0.0
0.996,-0.11764705882352941
0.998,-0.058823529411764705
1.0,-0.11764705882352941
1.002,-0.35294117647058826
1.004,-0.47058823529411764
1.006,-0.6470588235294118
1.008,-0.7647058823529411
1.01,-0.6470588235294118
1.012,-0.47058823529411764
1.014,-0.5294117647058824
1.016,-0.29411764705882354
1.018,-0.4117647058823529
1.02,-0.35294117647058826
1.022,-0.5882352941176471
1.024,-0.6470588235294118
1.026,-0.7058823529411765
1.028,-0.7058823529411765
1.03,-0.5294117647058824
1.032,-0.5294117647058824
1.034,-0.4117647058823529
1.036,-0.23529411764705882
1.038,-0.35294117647058826
1.04,-0.35294117647058826
1.042,-0.5882352941176471
1.044,-0.6470588235294118
1.046,-0.6470588235294118
1.048,-0.7058823529411765
1.05,-0.6470588235294118
1.052,-0.5882352941176471
1.054,-0.47058823529411764
1.056,-0.6470588235294118
1.058,-0.35294117647058826
1.06,-0.6470588235294118
1.062,-0.5882352941176471
1.064,-0.5882352941176471
1.066,-0.7058823529411765
1.068,-0.7058823529411765
1.07,-0.5294117647058824
1.072,-0.47058823529411764
1.074,-0.47058823529411764
1.076,-0.47058823529411764
1.078,-0.47058823529411764
1.08,-0.5882352941176471
1.082,-0.6470588235294118
1.084,-0.6470588235294118
1.086,-0.7058823529411765
1.088,-0.6470588235294118
1.09,-0.35294117647058826
1.092,-0.35294117647058826
1.094,-0.29411764705882354
1.096,-0.23529411764705882
1.098,-0.17647058823529413
1.1,-0.29411764705882354
1.102,-0.4117647058823529
1.104,-0.5294117647058824
1.106,-0.5882352941176471
1.108,-0.6470588235294118
1.11,-0.5294117647058824
1.112,-0.47058823529411764
1.114,-0.23529411764705882
1.116,-0.17647058823529413
1.118,-0.11764705882352941
1.12,-0.17647058823529413
1.122,-0.23529411764705882
1.124,-0.35294117647058826
1.1260000000000001,-0.4117647058823529
1.1280000000000001,-0.47058823529411764
1.1300000000000001,-0.35294117647058826
1.1320000000000001,-0.35294117647058826
1.1340000000000001,-0.29411764705882354
1.1360000000000001,-0.17647058823529413
1.1380000000000001,-0.17647058823529413
1.1400000000000001,-0.29411764705882354
1.1420000000000001,-0.23529411764705882
1.1440000000000001,-0.4117647058823529
1.1460000000000001,-0.47058823529411764
1.1480000000000001,-0.5294117647058824
1.1500000000000001,-0.5294117647058824
1.1520000000000001,-0.35294117647058826
1.154,-0.29411764705882354
1.156,-0.058823529411764705
1.158,-0.11764705882352941
1.16,-0.35294117647058826
1.162,-0.35294117647058826
1.164,-0.4117647058823529
1.166,-0.5882352941176471
1.168,-0.7058823529411765
1.17,-0.47058823529411764
1.172,-0.47058823529411764
1.174,-0.35294117647058826
1.176,-0.23529411764705882
1.178,-0.29411764705882354
1.18,-0.47058823529411764
1.182,-0.5294117647058824
1.184,-0.23529411764705882
1.186,-0.5882352941176471
1.188,-0.6470588235294118
1.19,-0.47058823529411764
1.192,-0.35294117647058826
1.194,-0.4117647058823529
1.196,-0.17647058823529413
1.198,-0.23529411764705882
1.2,-0.47058823529411764
1.202,-0.5882352941176471
1.204,-0.6470588235294118
1.206,-0.7058823529411765
1.208,-0.7058823529411765
1.21,-0.6470588235294118
1.212,-0.47058823529411764
1.214,-0.47058823529411764
1.216,-0.4117647058823529
1.218,-0.23529411764705882
1.22,-0.4117647058823529
1.222,-0.5294117647058824
1.224,-0.5882352941176471
1.226,-0.8235294117647058
1.228,-0.8235294117647058
1.23,-0.5882352941176471
1.232,-0.5294117647058824
1.234,-0.4117647058823529
1.236,-0.4117647058823529
1.238,-0.4117647058823529
1.24,-0.5294117647058824
1.242,-0.6470588235294118
1.244,-0.5882352941176471
1.246,-0.5882352941176471
1.248,-0.47058823529411764
1.25,-0.4117647058823529
1.252,-0.29411764705882354
1.254,-0.058823529411764705
1.256,-0.11764705882352941
1.258,-0.29411764705882354
1.26,-0.47058823529411764
1.262,-0.35294117647058826
1.264,-0.4117647058823529
1.266,-0.47058823529411764
1.268,-0.47058823529411764
1.27,-0.29411764705882354
1.272,-0.17647058823529413
1.274,-0.11764705882352941
1.276,0.17647058823529413
1.278,-0.058823529411764705
1.28,-0.058823529411764705
1.282,-0.17647058823529413
1.284,-0.23529411764705882
1.286,-0.29411764705882354
1.288,-0.29411764705882354
1.29,-0.11764705882352941
1.292,0.058823529411764705
1.294,0.17647058823529413
1.296,0.23529411764705882
1.298,0.17647058823529413
1.3,0.058823529411764705
1.302,0.058823529411764705
1.304,0.0
1.306,0.0
1.308,0.0
1.31,0.0
1.312,0.058823529411764705
1.314,0.23529411764705882
1.316,0.35294117647058826
1.318,0.23529411764705882
1.32,-0.11764705882352941
1.322,-0.29411764705882354
1.324,-0.4117647058823529
1.326,-0.6470588235294118
1.328,-0.5882352941176471
1.33,-0.5294117647058824
1.332,-0.47058823529411764
1.334,-0.5294117647058824
1.336,-0.29411764705882354
1.338,-0.4117647058823529
1.34,-0.7058823529411765
1.342,-0.7058823529411765
1.344,-0.8235294117647058
1.346,-0.9411764705882353
1.348,-0.7647058823529411
1.35,-0.6470588235294118
1.352,-0.5882352941176471
1.354,-0.5882352941176471
1.356,-0.4117647058823529
1.358,-0.6470588235294118
1.36,-0.6470588235294118
1.362,-0.7058823529411765
1.364,-0.7647058823529411
1.366,-0.7647058823529411
1.368,-0.7058823529411765
1.37,-0.7647058823529411
1.372,-0.7647058823529411
1.374,-0.7647058823529411
1.3760000000000001,-0.7647058823529411
1.3780000000000001,-0.7647058823529411
1.3800000000000001,-0.9411764705882353
1.3820000000000001,-1.0
1.3840000000000001,-0.9411764705882353
1.3860000000000001,-1.1764705882352942
1.3880000000000001,-1.0588235294117647
1.3900000000000001,-0.9411764705882353
1.3920000000000001,-0.7058823529411765
1.3940000000000001,-0.5294117647058824
1.3960000000000001,-0.5294117647058824
1.3980000000000001,-0.6470588235294118
1.4000000000000001,-0.7058823529411765
1.4020000000000001,-1.0
1.4040000000000001,-1.0
1.4060000000000001,-1.1764705882352942
1.408,-1.1764705882352942
1.41,-0.9411764705882353
1.412,-0.8823529411764706
1.414,-0.8235294117647058
1.416,-0.8823529411764706
1.418,-1.1176470588235294
1.42,-1.2352941176470589
1.422,-1.3529411764705883
1.424,-1.6470588235294117
1.426,-1.8235294117647058
1.428,-1.588235294117647
1.43,-1.2352941176470589
1.432,-0.5294117647058824
1.434,0.23529411764705882
1.436,0.8823529411764706
1.438,1.4705882352941178
1.44,2.0
1.442,2.6470588235294117
1.444,3.235294117647059
1.446,4.588235294117647
1.448,6.0588235294117645
1.45,7.529411764705882
1.452,8.117647058823529
1.454,7.764705882352941
1.456,7.235294117647059
1.458,6.529411764705882
1.46,5.705882352941177
1.462,4.588235294117647
1.464,3.588235294117647
1.466,2.2941176470588234
1.468,1.0
1.47,-0.35294117647058826
1.472,-1.3529411764705883
1.474,-1.8235294117647058
1.476,-1.7058823529411764
1.478,-1.4705882352941178
1.48,-1.3529411764705883
1.482,-1.2941176470588236
1.484,-1.0
1.486,-0.5882352941176471
1.488,-0.6470588235294118
1.49,-0.35294117647058826
1.492,-0.4117647058823529
1.494,-0.5294117647058824
1.496,-0.47058823529411764
1.498,-0.47058823529411764
1.5,-0.7647058823529411
1.502,-0.8235294117647058
1.504,-0.9411764705882353
1.506,-0.8823529411764706
1.508,-0.8235294117647058
1.51,-0.7058823529411765
1.512,-0.5882352941176471
1.514,-0.35294117647058826
1.516,-0.5294117647058824
1.518,-0.5294117647058824
1.52,-0.6470588235294118
1.522,-0.7058823529411765
1.524,-0.6470588235294118
1.526,-0.7058823529411765
1.528,-0.47058823529411764
1.53,-0.4117647058823529
1.532,-0.29411764705882354
1.534,-0.11764705882352941
1.536,-0.29411764705882354
1.538,-0.5294117647058824
1.54,-0.5882352941176471
1.542,-0.6470588235294118
1.544,-0.5882352941176471
1.546,-0.6470588235294118
1.548,-0.35294117647058826
1.55,-0.29411764705882354
1.552,-0.23529411764705882
1.554,-0.11764705882352941
1.556,-0.11764705882352941
1.558,-0.23529411764705882
1.56,-0.35294117647058826
1.562,-0.29411764705882354
1.564,-0.23529411764705882
1.566,-0.17647058823529413
1.568,0.058823529411764705
1.57,0.23529411764705882
1.572,0.29411764705882354
1.574,0.29411764705882354
1.576,0.17647058823529413
1.578,0.058823529411764705
1.58,-0.11764705882352941
1.582,-0.11764705882352941
1.584,-0.11764705882352941
1.586,0.11764705882352941
1.588,0.17647058823529413
1.59,0.29411764705882354
1.592,0.5294117647058824
1.594,0.7058823529411765
1.596,0.7647058823529411
1.598,0.5882352941176471
1.6,0.47058823529411764
1.602,0.5294117647058824
1.604,0.47058823529411764
1.606,0.5294117647058824
1.608,0.5294117647058824
1.61,0.7058823529411765
1.612,0.7647058823529411
1.614,0.8235294117647058
1.616,0.7647058823529411
1.618,0.7647058823529411
1.62,0.7647058823529411
1.622,0.7647058823529411
1.624,0.8823529411764706
1.6260000000000001,0.9411764705882353
1.6280000000000001,1.1764705882352942
1.6300000000000001,1.3529411764705883
1.6320000000000001,1.4705882352941178
1.6340000000000001,1.5294117647058822
1.6360000000000001,1.6470588235294117
1.6380000000000001,1.6470588235294117
1.6400000000000001,1.7647058823529411
1.6420000000000001,1.588235294117647
1.6440000000000001,1.5294117647058822
1.6460000000000001,1.6470588235294117
1.6480000000000001,2.0
1.6500000000000001,2.0588235294117645
1.6520000000000001,2.235294117647059
1.6540000000000001,2.3529411764705883
1.6560000000000001,2.411764705882353
1.6580000000000001,2.235294117647059
1.6600000000000001,2.3529411764705883
1.6620000000000001,2.3529411764705883
1.6640000000000001,2.2941176470588234
1.666,2.4705882352941178
1.668,2.6470588235294117
1.67,2.764705882352941
1.672,2.7058823529411766
1.674,2.823529411764706
1.676,2.6470588235294117
1.678,2.6470588235294117
1.68,2.411764705882353
1.682,2.3529411764705883
1.684,2.235294117647059
1.686,2.235294117647059
1.688,2.411764705882353
1.69,2.411764705882353
1.692,2.588235294117647
1.694,2.7058823529411766
1.696,2.411764705882353
1.698,2.2941176470588234
1.7,2.0588235294117645
1.702,1.9411764705882353
1.704,1.8235294117647058
1.706,1.7647058823529411
1.708,1.6470588235294117
1.71,1.588235294117647
1.712,1.5294117647058822
1.714,1.2941176470588236
1.716,1.2352941176470589
1.718,1.0
1.72,0.8823529411764706
1.722,0.7647058823529411
1.724,0.7058823529411765
1.726,0.7647058823529411
1.728,0.7058823529411765
1.73,0.7058823529411765
1.732,0.5882352941176471
1.734,0.5294117647058824
1.736,0.47058823529411764
1.738,0.23529411764705882
1.74,0.11764705882352941
1.742,0.0
1.744,0.0
1.746,0.11764705882352941
1.748,0.17647058823529413
1.75,0.11764705882352941
1.752,0.23529411764705882
1.754,0.11764705882352941
1.756,0.0
1.758,-0.23529411764705882
1.76,-0.23529411764705882
1.762,-0.47058823529411764
1.764,-0.4117647058823529
1.766,-0.29411764705882354
1.768,-0.17647058823529413
1.77,-0.058823529411764705
1.772,0.058823529411764705
1.774,-0.058823529411764705
1.776,-0.23529411764705882
1.778,-0.29411764705882354
1.78,-0.29411764705882354
1.782,-0.29411764705882354
1.784,-0.29411764705882354
1.786,-0.29411764705882354
1.788,-0.11764705882352941
1.79,0.058823529411764705
1.792,0.17647058823529413
1.794,0.11764705882352941
1.796,0.058823529411764705
1.798,-0.23529411764705882
1.8,-0.17647058823529413
1.802,-0.17647058823529413
1.804,-0.23529411764705882
1.806,-0.29411764705882354
1.808,-0.23529411764705882
1.81,-0.23529411764705882
1.812,0.0
1.814,0.17647058823529413
1.816,-0.058823529411764705
1.818,-0.11764705882352941
1.82,-0.23529411764705882
1.822,-0.35294117647058826
1.824,-0.35294117647058826
1.826,-0.17647058823529413
1.828,0.0
1.83,0.11764705882352941
1.832,0.17647058823529413
1.834,0.17647058823529413
1.836,-0.058823529411764705
1.838,-0.11764705882352941
1.84,-0.4117647058823529
1.842,-0.29411764705882354
1.844,-0.29411764705882354
1.846,-0.23529411764705882
1.848,0.058823529411764705
1.85,0.17647058823529413
1.852,0.23529411764705882
1.854,0.29411764705882354
1.856,0.0
1.858,-0.11764705882352941
1.86,-0.29411764705882354
1.862,-0.4117647058823529
1.864,-0.23529411764705882
1.866,-0.11764705882352941
1.868,0.058823529411764705
1.87,0.058823529411764705
1.872,0.11764705882352941
1.874,0.17647058823529413
1.8760000000000001,0.0
1.8780000000000001,-0.058823529411764705
1.8800000000000001,-0.23529411764705882
1.8820000000000001,-0.29411764705882354
1.8840000000000001,-0.29411764705882354
1.8860000000000001,-0.17647058823529413
1.8880000000000001,0.0
1.8900000000000001,0.058823529411764705
1.8920000000000001,0.17647058823529413
1.8940000000000001,0.23529411764705882
1.8960000000000001,0.0
1.8980000000000001,-0.17647058823529413
1.9000000000000001,-0.23529411764705882
1.9020000000000001,-0.35294117647058826
1.9040000000000001,-0.29411764705882354
1.9060000000000001,-0.058823529411764705
1.9080000000000001,-0.058823529411764705
1.9100000000000001,0.0
1.9120000000000001,0.11764705882352941
1.9140000000000001,0.17647058823529413
1.9160000000000001,0.058823529411764705
1.9180000000000001,-0.11764705882352941
1.92,-0.17647058823529413
1.922,-0.23529411764705882
1.924,-0.17647058823529413
1.926,-0.058823529411764705
1.928,-0.058823529411764705
1.93,-0.058823529411764705
1.932,-0.11764705882352941
1.934,-0.11764705882352941
1.936,-0.11764705882352941
1.938,-0.17647058823529413
1.94,-0.29411764705882354
1.942,-0.29411764705882354
1.944,-0.23529411764705882
1.946,-0.11764705882352941
1.948,-0.11764705882352941
1.95,-0.058823529411764705
1.952,-0.058823529411764705
1.954,-0.11764705882352941
1.956,-0.29411764705882354
1.958,-0.29411764705882354
1.96,-0.29411764705882354
1.962,-0.4117647058823529
1.964,-0.35294117647058826
1.966,-0.23529411764705882
1.968,-0.11764705882352941
1.97,-0.058823529411764705
1.972,-0.11764705882352941
1.974,-0.17647058823529413
1.976,-0.29411764705882354
1.978,-0.35294117647058826
1.98,-0.4117647058823529
1.982,-0.47058823529411764
1.984,-0.29411764705882354
1.986,-0.23529411764705882
1.988,-0.17647058823529413
1.99,-0.058823529411764705
1.992,0.0
1.994,-0.11764705882352941
1.996,-0.29411764705882354
1.998,-0.35294117647058826
2.0,-0.5294117647058824
2.0020000000000002,-0.5294117647058824
2.004,-0.5294117647058824
2.0060000000000002,-0.4117647058823529
2.008,-0.47058823529411764
2.0100000000000002,-0.29411764705882354
2.012,-0.11764705882352941
2.0140000000000002,-0.29411764705882354
2.016,-0.47058823529411764
2.0180000000000002,-0.47058823529411764
2.02,-0.35294117647058826
2.0220000000000002,-0.4117647058823529
2.024,-0.47058823529411764
2.0260000000000002,-0.29411764705882354
2.028,-0.23529411764705882
2.0300000000000002,-0.17647058823529413
2.032,-0.058823529411764705
2.0340000000000003,-0.11764705882352941
2.036,-0.29411764705882354
2.0380000000000003,-0.47058823529411764
2.04,-0.5294117647058824
2.0420000000000003,-0.47058823529411764
2.044,-0.23529411764705882
2.0460000000000003,-0.17647058823529413
2.048,-0.11764705882352941
2.05,0.0
2.052,-0.058823529411764705
2.054,-0.11764705882352941
2.056,-0.11764705882352941
2.058,-0.17647058823529413
2.06,0.0
2.062,0.11764705882352941
2.064,0.29411764705882354
2.066,0.7647058823529411
2.068,0.8235294117647058
2.07,1.0
2.072,1.1764705882352942
2.074,1.1764705882352942
2.076,1.0588235294117647
2.078,1.0588235294117647
2.08,1.1176470588235294
2.082,1.0
2.084,1.1764705882352942
2.086,1.2352941176470589
2.088,1.2941176470588236
2.09,1.411764705882353
2.092,1.4705882352941178
2.094,1.5294117647058822
2.096,1.7058823529411764
2.098,1.8235294117647058
2.1,1.7058823529411764
2.102,1.588235294117647
2.104,1.7647058823529411
2.106,1.9411764705882353
2.108,2.1176470588235294
2.11,2.176470588235294
2.112,2.0588235294117645
2.114,2.0
2.116,1.9411764705882353
2.118,2.0588235294117645
2.12,2.0
2.122,1.8823529411764706
2.124,2.0
2.126,2.0
2.128,2.0
2.13,1.9411764705882353
2.132,1.8823529411764706
2.134,1.7647058823529411
2.136,1.588235294117647
2.138,1.3529411764705883
2.14,1.3529411764705883
2.142,1.2352941176470589
2.144,1.2941176470588236
2.146,1.411764705882353
2.148,1.4705882352941178
2.15,1.5294117647058822
2.152,1.6470588235294117
2.154,1.4705882352941178
2.156,1.4705882352941178
2.158,1.411764705882353
2.16,1.2941176470588236
2.162,1.1176470588235294
2.164,1.1176470588235294
2.166,1.1176470588235294
2.168,1.2352941176470589
2.17,1.3529411764705883
2.172,1.411764705882353
2.174,1.2352941176470589
2.176,1.1176470588235294
2.178,0.9411764705882353
2.18,0.8823529411764706
2.182,0.8823529411764706
2.184,1.0588235294117647
2.186,1.2941176470588236
2.188,1.3529411764705883
2.19,1.411764705882353
2.192,1.4705882352941178
2.194,1.1176470588235294
2.196,0.9411764705882353
2.198,0.8235294117647058
2.2,0.7058823529411765
2.202,1.0
2.204,1.1764705882352942
2.206,1.1764705882352942
2.208,1.2352941176470589
2.21,1.3529411764705883
2.212,1.2352941176470589
2.214,1.1176470588235294
2.216,1.0
2.218,0.8823529411764706
2.22,0.8235294117647058
2.222,0.9411764705882353
2.224,0.8823529411764706
2.226,0.9411764705882353
2.228,1.0588235294117647
2.23,0.9411764705882353
2.232,1.0588235294117647
2.234,0.6470588235294118
2.236,0.5294117647058824
2.238,0.23529411764705882
2.24,0.23529411764705882
2.242,0.47058823529411764
2.244,0.8235294117647058
2.246,1.3529411764705883
2.248,2.0588235294117645
2.25,2.764705882352941
2.2520000000000002,3.2941176470588234
2.254,3.823529411764706
2.2560000000000002,4.529411764705882
2.258,5.235294117647059
2.2600000000000002,6.529411764705882
2.262,8.0
2.2640000000000002,9.647058823529411
2.266,10.470588235294118
2.2680000000000002,10.117647058823529
2.27,9.882352941176471
2.2720000000000002,9.117647058823529
2.274,8.176470588235293
2.2760000000000002,7.0
2.278,5.9411764705882355
2.2800000000000002,4.647058823529412
2.282,3.1176470588235294
2.2840000000000003,1.8235294117647058
2.286,0.5882352941176471
2.2880000000000003,0.11764705882352941
2.29,0.4117647058823529
2.2920000000000003,0.47058823529411764
2.294,0.47058823529411764
2.2960000000000003,0.6470588235294118
2.298,0.7058823529411765
2.3000000000000003,0.8823529411764706
2.302,1.1176470588235294
2.3040000000000003,1.411764705882353
2.306,1.5294117647058822
2.308,1.4705882352941178
2.31,1.5294117647058822
2.312,1.411764705882353
2.314,1.2352941176470589
2.316,1.0588235294117647
2.318,1.0
2.32,1.0588235294117647
2.322,1.2352941176470589
2.324,1.2941176470588236
2.326,1.2941176470588236
2.328,1.411764705882353
2.33,1.5294117647058822
2.332,1.4705882352941178
2.334,1.2941176470588236
2.336,1.0588235294117647
2.338,0.8823529411764706
2.34,0.9411764705882353
2.342,1.1176470588235294
2.344,1.3529411764705883
2.346,1.3529411764705883
2.348,1.3529411764705883
2.35,1.6470588235294117
2.352,1.2941176470588236
2.354,1.1764705882352942
2.356,1.1176470588235294
2.358,1.0
2.36,1.1764705882352942
2.362,1.411764705882353
2.364,1.5294117647058822
2.366,1.588235294117647
2.368,1.6470588235294117
2.37,1.7058823529411764
2.372,1.5294117647058822
2.374,1.3529411764705883
2.376,1.2941176470588236
2.378,1.2352941176470589
2.38,1.2941176470588236
2.382,1.5294117647058822
2.384,1.6470588235294117
2.386,1.7647058823529411
2.388,1.8235294117647058
2.39,1.9411764705882353
2.392,1.588235294117647
2.394,1.3529411764705883
2.396,1.2941176470588236
2.398,1.3529411764705883
2.4,1.2941176470588236
2.402,1.5294117647058822
2.404,1.588235294117647
2.406,1.6470588235294117
2.408,1.8235294117647058
2.41,1.9411764705882353
2.412,1.8823529411764706
2.414,1.7647058823529411
2.416,1.7058823529411764
2.418,1.7058823529411764
2.42,1.588235294117647
2.422,1.6470588235294117
2.424,1.9411764705882353
2.426,2.0
2.428,2.0588235294117645
2.43,2.0
2.432,2.0
2.434,1.9411764705882353
2.436,2.0588235294117645
2.438,1.8823529411764706
2.44,1.9411764705882353
2.442,2.1176470588235294
2.444,2.4705882352941178
2.446,2.5294117647058822
2.448,2.6470588235294117
2.45,2.6470588235294117
2.452,2.5294117647058822
2.454,2.4705882352941178
2.456,2.588235294117647
2.458,2.3529411764705883
2.46,2.6470588235294117
2.462,2.9411764705882355
2.464,3.0
2.466,3.0588235294117645
2.468,3.176470588235294
2.47,3.176470588235294
2.472,3.176470588235294
2.474,3.1176470588235294
2.476,3.1176470588235294
2.478,2.9411764705882355
2.48,3.1176470588235294
2.482,3.1176470588235294
2.484,3.2941176470588234
2.486,3.4705882352941178
2.488,3.4705882352941178
2.49,3.411764705882353
2.492,3.411764705882353
2.494,3.3529411764705883
2.496,3.2941176470588234
2.498,3.0588235294117645
2.5,3.0588235294117645
2.5020000000000002,3.0
2.504,3.0588235294117645
2.5060000000000002,3.0588235294117645
2.508,3.176470588235294
2.5100000000000002,3.0588235294117645
2.512,2.764705882352941
2.5140000000000002,2.588235294117647
2.516,2.235294117647059
2.5180000000000002,2.0
2.52,2.0
2.5220000000000002,1.7647058823529411
2.524,1.8235294117647058
2.5260000000000002,1.8823529411764706
2.528,1.7647058823529411
2.5300000000000002,1.5294117647058822
2.532,1.411764705882353
2.5340000000000003,1.1176470588235294
2.536,1.1176470588235294
2.5380000000000003,0.8823529411764706
2.54,0.9411764705882353
2.5420000000000003,0.8823529411764706
2.544,0.8823529411764706
2.5460000000000003,0.7647058823529411
2.548,0.7647058823529411
2.5500000000000003,0.4117647058823529
2.552,0.35294117647058826
2.5540000000000003,0.23529411764705882
2.556,0.17647058823529413
2.5580000000000003,-0.058823529411764705
2.56,0.0
2.562,0.11764705882352941
2.564,0.11764705882352941
2.566,0.11764705882352941
2.568,0.35294117647058826
2.57,0.17647058823529413
2.572,0.058823529411764705
2.574,-0.11764705882352941
2.576,-0.23529411764705882
2.578,-0.35294117647058826
2.58,-0.23529411764705882
2.582,-0.17647058823529413
2.584,-0.11764705882352941
2.586,-0.058823529411764705
2.588,0.11764705882352941
2.59,-0.11764705882352941
2.592,-0.058823529411764705
2.594,-0.29411764705882354
2.596,-0.6470588235294118
2.598,-0.47058823529411764
2.6,-0.4117647058823529
2.602,-0.11764705882352941
2.604,0.0
2.606,0.058823529411764705
2.608,0.058823529411764705
2.61,-0.058823529411764705
2.612,-0.35294117647058826
2.614,-0.4117647058823529
2.616,-0.47058823529411764
2.618,-0.35294117647058826
2.62,-0.4117647058823529
2.622,-0.35294117647058826
2.624,-0.23529411764705882
2.626,-0.17647058823529413
2.628,-0.11764705882352941
2.63,-0.29411764705882354
2.632,-0.4117647058823529
2.634,-0.6470588235294118
2.636,-0.6470588235294118
2.638,-0.5882352941176471
2.64,-0.47058823529411764
2.642,-0.29411764705882354
2.644,-0.17647058823529413
2.646,-0.23529411764705882
2.648,-0.11764705882352941
2.65,-0.29411764705882354
2.652,-0.35294117647058826
2.654,-0.4117647058823529
2.656,-0.5882352941176471
2.658,-0.6470588235294118
2.66,-0.47058823529411764
2.662,-0.47058823529411764
2.664,-0.23529411764705882
2.666,-0.17647058823529413
2.668,-0.23529411764705882
2.67,-0.35294117647058826
2.672,-0.5294117647058824
2.674,-0.5882352941176471
2.676,-0.6470588235294118
2.678,-0.6470588235294118
2.68,-0.5882352941176471
2.682,-0.23529411764705882
2.684,-0.29411764705882354
2.686,-0.29411764705882354
2.688,-0.17647058823529413
2.69,-0.4117647058823529
2.692,-0.47058823529411764
2.694,-0.47058823529411764
2.696,-0.47058823529411764
2.698,-0.47058823529411764
2.7,-0.29411764705882354
2.702,-0.4117647058823529
2.704,-0.35294117647058826
2.706,-0.29411764705882354
2.708,-0.35294117647058826
2.71,-0.5294117647058824
2.712,-0.7058823529411765
2.714,-0.7058823529411765
2.716,-0.7647058823529411
2.718,-0.7058823529411765
2.72,-0.47058823529411764
2.722,-0.35294117647058826
2.724,-0.4117647058823529
2.726,-0.35294117647058826
2.728,-0.29411764705882354
2.73,-0.5294117647058824
2.732,-0.5294117647058824
2.734,-0.7647058823529411
2.736,-0.8235294117647058
2.738,-0.7647058823529411
2.74,-0.6470588235294118
2.742,-0.5882352941176471
2.744,-0.4117647058823529
2.746,-0.35294117647058826
2.748,-0.35294117647058826
2.75,-0.5294117647058824
2.7520000000000002,-0.7058823529411765
2.754,-0.7647058823529411
2.7560000000000002,-0.8823529411764706
2.758,-0.8235294117647058
2.7600000000000002,-0.5882352941176471
2.762,-0.5882352941176471
2.7640000000000002,-0.47058823529411764
2.766,-0.35294117647058826
2.7680000000000002,-0.47058823529411764
2.77,-0.5294117647058824
2.7720000000000002,-0.7058823529411765
2.774,-0.7058823529411765
2.7760000000000002,-0.7647058823529411
2.778,-0.8823529411764706
2.7800000000000002,-0.8235294117647058
2.782,-0.7058823529411765
2.7840000000000003,-0.6470588235294118
2.786,-0.5294117647058824
2.7880000000000003,-0.5882352941176471
2.79,-0.6470588235294118
2.7920000000000003,-0.7647058823529411
2.794,-0.7647058823529411
2.7960000000000003,-0.9411764705882353
2.798,-0.7647058823529411
2.8000000000000003,-0.6470588235294118
2.802,-0.47058823529411764
2.8040000000000003,-0.47058823529411764
2.806,-0.35294117647058826
2.8080000000000003,-0.4117647058823529
2.81,-0.5882352941176471
2.8120000000000003,-0.8823529411764706
2.814,-0.8823529411764706
2.816,-1.1176470588235294
2.818,-1.0588235294117647
2.82,-0.7647058823529411
2.822,-0.6470588235294118
2.824,-0.5294117647058824
2.826,-0.5294117647058824
2.828,-0.6470588235294118
2.83,-0.8235294117647058
2.832,-0.9411764705882353
2.834,-0.8823529411764706
2.836,-0.8823529411764706
2.838,-0.7647058823529411
2.84,-0.7058823529411765
2.842,-0.6470588235294118
2.844,-0.5294117647058824
2.846,-0.47058823529411764
2.848,-0.47058823529411764
2.85,-0.6470588235294118
2.852,-0.8823529411764706
2.854,-0.8823529411764706
2.856,-0.9411764705882353
2.858,-0.7647058823529411
2.86,-0.7058823529411765
2.862,-0.6470588235294118
2.864,-0.7058823529411765
2.866,-0.5294117647058824
2.868,-0.7647058823529411
2.87,-0.8823529411764706
2.872,-1.0
2.874,-1.0588235294117647
2.876,-1.0588235294117647
2.878,-0.8823529411764706
2.88,-0.6470588235294118
2.882,-0.35294117647058826
2.884,-0.29411764705882354
2.886,-0.5294117647058824
2.888,-0.7647058823529411
2.89,-0.8823529411764706
2.892,-1.0
2.894,-1.0588235294117647
2.896,-1.1764705882352942
2.898,-1.0
2.9,-0.8235294117647058
2.902,-0.7058823529411765
2.904,-0.5294117647058824
2.906,-0.47058823529411764
2.908,-0.7058823529411765
2.91,-0.8235294117647058
2.912,-0.8823529411764706
2.914,-1.0
2.916,-1.0
2.918,-0.8235294117647058
2.92,-0.7058823529411765
2.922,-0.7058823529411765
2.924,-0.6470588235294118
2.926,-0.5882352941176471
2.928,-0.7647058823529411
2.93,-0.8823529411764706
2.932,-0.8823529411764706
2.934,-0.9411764705882353
2.936,-0.8235294117647058
2.938,-0.7058823529411765
2.94,-0.6470588235294118
2.942,-0.6470588235294118
2.944,-0.5294117647058824
2.946,-0.47058823529411764
2.948,-0.7647058823529411
2.95,-0.9411764705882353
2.952,-1.0588235294117647
2.954,-0.8235294117647058
2.956,-0.9411764705882353
2.958,-0.8235294117647058
2.96,-0.5882352941176471
2.962,-0.5294117647058824
2.964,-0.5882352941176471
2.966,-0.5294117647058824
2.968,-0.6470588235294118
2.97,-0.8235294117647058
2.972,-0.8823529411764706
2.974,-0.8235294117647058
2.976,-0.7647058823529411
2.978,-0.7058823529411765
2.98,-0.6470588235294118
2.982,-0.6470588235294118
2.984,-0.47058823529411764
2.986,-0.5294117647058824
2.988,-0.7058823529411765
2.99,-0.6470588235294118
2.992,-0.5882352941176471
2.994,-0.7647058823529411
2.996,-0.6470588235294118
2.998,-0.47058823529411764
3.0,-0.4117647058823529
3.0020000000000002,-0.17647058823529413
3.004,-0.23529411764705882
3.0060000000000002,-0.35294117647058826
3.008,-0.4117647058823529
3.0100000000000002,-0.5882352941176471
3.012,-0.5882352941176471
3.0140000000000002,-0.5882352941176471
3.016,-0.5882352941176471
3.0180000000000002,-0.47058823529411764
3.02,-0.23529411764705882
3.0220000000000002,0.058823529411764705
3.024,0.11764705882352941
3.0260000000000002,0.17647058823529413
3.028,0.0
3.0300000000000002,0.0
3.032,-0.17647058823529413
3.0340000000000003,-0.23529411764705882
3.036,-0.23529411764705882
3.0380000000000003,-0.23529411764705882
3.04,-0.058823529411764705
3.0420000000000003,0.11764705882352941
3.044,0.5294117647058824
3.0460000000000003,0.29411764705882354
3.048,0.058823529411764705
3.0500000000000003,0.0
3.052,-0.29411764705882354
3.0540000000000003,-0.5294117647058824
3.056,-0.47058823529411764
3.0580000000000003,-0.29411764705882354
3.06,-0.29411764705882354
3.0620000000000003,-0.35294117647058826
3.064,-0.35294117647058826
3.0660000000000003,-0.5882352941176471
3.068,-0.7058823529411765
3.0700000000000003,-0.8823529411764706
3.072,-1.0
3.074,-1.0588235294117647
3.076,-1.0588235294117647
3.078,-0.8235294117647058
3.08,-0.8235294117647058
3.082,-0.6470588235294118
3.084,-0.5294117647058824
3.086,-0.6470588235294118
3.088,-0.8235294117647058
3.09,-0.9411764705882353
3.092,-0.9411764705882353
3.094,-1.0588235294117647
3.096,-1.0588235294117647
3.098,-0.9411764705882353
3.1,-0.7058823529411765
3.102,-0.7058823529411765
3.104,-0.7058823529411765
3.106,-0.9411764705882353
3.108,-0.9411764705882353
3.11,-1.0
3.112,-1.2352941176470589
3.114,-1.2941176470588236
3.116,-1.1764705882352942
3.118,-0.9411764705882353
3.12,-0.8823529411764706
3.122,-0.7647058823529411
3.124,-0.6470588235294118
3.126,-0.8235294117647058
3.128,-1.0
3.13,-1.1764705882352942
3.132,-1.2941176470588236
3.134,-1.2352941176470589
3.136,-1.0588235294117647
3.138,-1.0
3.14,-0.9411764705882353
3.142,-0.8823529411764706
3.144,-0.5882352941176471
3.146,-0.9411764705882353
3.148,-1.0
3.15,-1.0588235294117647
3.152,-1.2941176470588236
3.154,-1.411764705882353
3.156,-1.2352941176470589
3.158,-1.1176470588235294
3.16,-1.1764705882352942
3.162,-1.1764705882352942
3.164,-1.2352941176470589
3.166,-1.4705882352941178
3.168,-1.5294117647058822
3.17,-1.4705882352941178
3.172,-1.4705882352941178
3.174,-1.0588235294117647
3.176,-0.23529411764705882
3.178,0.5294117647058824
3.18,1.1176470588235294
3.182,1.8235294117647058
3.184,2.764705882352941
3.186,3.235294117647059
3.188,4.235294117647059
3.19,5.411764705882353
3.192,6.9411764705882355
3.194,7.882352941176471
3.196,7.9411764705882355
3.198,7.9411764705882355
3.2,7.294117647058823
3.202,6.764705882352941
3.204,5.470588235294118
3.206,4.470588235294118
3.208,3.176470588235294
3.21,1.588235294117647
3.212,-0.11764705882352941
3.214,-1.5294117647058822
3.216,-2.1176470588235294
3.218,-2.176470588235294
3.22,-1.7647058823529411
3.222,-1.588235294117647
3.224,-1.2941176470588236
3.226,-1.0
3.228,-0.8235294117647058
3.23,-0.8235294117647058
3.232,-0.8823529411764706
3.234,-0.7058823529411765
3.236,-0.5882352941176471
3.238,-0.5882352941176471
3.24,-0.4117647058823529
3.242,-0.35294117647058826
3.244,-0.4117647058823529
3.246,-0.5882352941176471
3.248,-0.7058823529411765
3.25,-0.7058823529411765
3.2520000000000002,-0.7058823529411765
3.254,-0.7647058823529411
3.2560000000000002,-0.5882352941176471
3.258,-0.47058823529411764
3.2600000000000002,-0.35294117647058826
3.262,-0.47058823529411764
3.2640000000000002,-0.35294117647058826
3.266,-0.5294117647058824
3.2680000000000002,-0.7647058823529411
3.27,-0.7058823529411765
3.2720000000000002,-0.7647058823529411
3.274,-0.47058823529411764
3.2760000000000002,-0.47058823529411764
3.278,-0.23529411764705882
3.2800000000000002,-0.11764705882352941
3.282,-0.17647058823529413
3.2840000000000003,-0.17647058823529413
3.286,-0.35294117647058826
3.2880000000000003,-0.5294117647058824
3.29,-0.47058823529411764
3.2920000000000003,-0.6470588235294118
3.294,-0.5294117647058824
3.2960000000000003,-0.35294117647058826
3.298,-0.11764705882352941
3.3000000000000003,0.058823529411764705
3.302,0.11764705882352941
3.3040000000000003,0.0
3.306,-0.29411764705882354
3.3080000000000003,-0.35294117647058826
3.31,-0.4117647058823529
3.3120000000000003,-0.7647058823529411
3.314,-0.47058823529411764
3.3160000000000003,-0.17647058823529413
3.318,-0.17647058823529413
3.3200000000000003,-0.058823529411764705
3.322,0.17647058823529413
3.3240000000000003,0.11764705882352941
3.326,0.058823529411764705
3.3280000000000003,-0.058823529411764705
3.33,-0.11764705882352941
3.332,-0.17647058823529413
3.334,0.0
3.336,-0.058823529411764705
3.338,0.0
3.34,0.11764705882352941
3.342,0.29411764705882354
3.344,0.35294117647058826
3.346,0.17647058823529413
3.348,0.17647058823529413
3.35,0.0
3.352,0.11764705882352941
3.354,0.11764705882352941
3.356,0.35294117647058826
3.358,0.5294117647058824
3.36,0.6470588235294118
3.362,0.7647058823529411
3.364,0.8235294117647058
3.366,0.7647058823529411
3.368,0.7058823529411765
3.37,0.5882352941176471
3.372,0.7647058823529411
3.374,0.8235294117647058
3.376,1.1764705882352942
3.378,1.2941176470588236
3.38,1.3529411764705883
3.382,1.5294117647058822
3.384,1.5294117647058822
3.386,1.411764705882353
3.388,1.3529411764705883
3.39,1.3529411764705883
3.392,1.4705882352941178
3.394,1.6470588235294117
3.396,1.8235294117647058
3.398,2.0
3.4,1.9411764705882353
3.402,2.0588235294117645
3.404,1.9411764705882353
3.406,2.0
3.408,2.176470588235294
3.41,2.1176470588235294
3.412,2.0588235294117645
3.414,2.2941176470588234
3.416,2.3529411764705883
3.418,2.4705882352941178
3.42,2.2941176470588234
3.422,2.5294117647058822
3.424,2.2941176470588234
3.426,2.2941176470588234
3.428,2.235294117647059
3.43,2.0
3.432,1.9411764705882353
3.434,2.0
3.436,2.176470588235294
3.438,2.0
3.44,2.0588235294117645
3.442,2.0
3.444,2.0588235294117645
3.446,1.5294117647058822
3.448,1.4705882352941178
3.45,1.411764705882353
3.452,1.2352941176470589
3.454,1.2352941176470589
3.456,1.2941176470588236
3.458,1.2352941176470589
3.46,1.1764705882352942
3.462,1.0588235294117647
3.464,0.8823529411764706
3.466,0.7647058823529411
3.468,0.5294117647058824
3.47,0.29411764705882354
3.472,0.058823529411764705
3.474,0.058823529411764705
3.476,-0.058823529411764705
3.478,0.058823529411764705
3.48,0.058823529411764705
3.482,0.0
3.484,-0.17647058823529413
3.486,-0.29411764705882354
3.488,-0.35294117647058826
3.49,-0.5294117647058824
3.492,-0.5882352941176471
3.494,-0.5882352941176471
3.496,-0.4117647058823529
3.498,-0.4117647058823529
3.5,-0.23529411764705882
3.5020000000000002,-0.23529411764705882
3.504,-0.4117647058823529
3.5060000000000002,-0.47058823529411764
3.508,-0.6470588235294118
3.5100000000000002,-0.6470588235294118
3.512,-0.5294117647058824
3.5140000000000002,-0.47058823529411764
3.516,-0.5294117647058824
3.5180000000000002,-0.5882352941176471
3.52,-0.6470588235294118
3.5220000000000002,-0.6470588235294118
3.524,-0.8823529411764706
3.5260000000000002,-0.8823529411764706
3.528,-0.8235294117647058
3.5300000000000002,-0.8823529411764706
3.532,-0.8823529411764706
3.5340000000000003,-0.7058823529411765
3.536,-0.6470588235294118
3.5380000000000003,-0.6470588235294118
3.54,-0.5882352941176471
3.5420000000000003,-0.5294117647058824
3.544,-0.5882352941176471
3.5460000000000003,-0.7058823529411765
3.548,-0.7647058823529411
3.5500000000000003,-0.9411764705882353
3.552,-0.8235294117647058
3.5540000000000003,-0.7058823529411765
3.556,-0.6470588235294118
3.5580000000000003,-0.4117647058823529
3.56,-0.23529411764705882
3.5620000000000003,-0.29411764705882354
3.564,-0.5294117647058824
3.5660000000000003,-0.8235294117647058
3.568,-0.8235294117647058
3.5700000000000003,-0.8823529411764706
3.572,-0.6470588235294118
3.5740000000000003,-0.5294117647058824
3.576,-0.23529411764705882
3.5780000000000003,-0.4117647058823529
3.58,-0.29411764705882354
3.5820000000000003,-0.29411764705882354
3.584,-0.47058823529411764
3.586,-0.6470588235294118
3.588,-0.7647058823529411
3.59,-0.8235294117647058
3.592,-0.7647058823529411
3.594,-0.5294117647058824
3.596,-0.47058823529411764
3.598,-0.47058823529411764
3.6,-0.29411764705882354
3.602,-0.11764705882352941
3.604,-0.4117647058823529
3.606,-0.5294117647058824
3.608,-0.5882352941176471
3.61,-0.7647058823529411
3.612,-0.7647058823529411
3.614,-0.5882352941176471
3.616,-0.4117647058823529
3.618,-0.4117647058823529
3.62,-0.23529411764705882
3.622,-0.17647058823529413
3.624,-0.35294117647058826
3.626,-0.4117647058823529
3.628,-0.5294117647058824
3.63,-0.5882352941176471
3.632,-0.5882352941176471
3.634,-0.35294117647058826
3.636,-0.35294117647058826
3.638,-0.35294117647058826
3.64,-0.29411764705882354
3.642,-0.11764705882352941
3.644,-0.47058823529411764
3.646,-0.4117647058823529
3.648,-0.47058823529411764
3.65,-0.5882352941176471
3.652,-0.4117647058823529
3.654,-0.4117647058823529
3.656,-0.17647058823529413
3.658,-0.29411764705882354
3.66,-0.17647058823529413
3.662,-0.17647058823529413
3.664,-0.29411764705882354
3.666,-0.47058823529411764
3.668,-0.47058823529411764
3.67,-0.5882352941176471
3.672,-0.6470588235294118
3.674,-0.47058823529411764
3.676,-0.35294117647058826
3.678,-0.29411764705882354
3.68,-0.29411764705882354
3.682,-0.35294117647058826
3.684,-0.4117647058823529
3.686,-0.7058823529411765
3.688,-0.7058823529411765
3.69,-0.8235294117647058
3.692,-0.7058823529411765
3.694,-0.4117647058823529
3.696,-0.35294117647058826
3.698,-0.11764705882352941
3.7,-0.29411764705882354
3.702,-0.29411764705882354
3.704,-0.47058823529411764
3.706,-0.6470588235294118
3.708,-0.8235294117647058
3.71,-0.8823529411764706
3.712,-0.47058823529411764
3.714,-0.5294117647058824
3.716,-0.47058823529411764
3.718,-0.5294117647058824
3.72,-0.35294117647058826
3.722,-0.4117647058823529
3.724,-0.5882352941176471
3.726,-0.6470588235294118
3.728,-0.7647058823529411
3.73,-0.8235294117647058
3.732,-0.7647058823529411
3.734,-0.7058823529411765
3.736,-0.5882352941176471
3.738,-0.47058823529411764
3.74,-0.35294117647058826
3.742,-0.5294117647058824
3.744,-0.6470588235294118
3.746,-0.5882352941176471
3.748,-0.7058823529411765
3.75,-0.8235294117647058
3.7520000000000002,-0.5294117647058824
3.754,-0.47058823529411764
3.7560000000000002,-0.35294117647058826
3.758,-0.29411764705882354
3.7600000000000002,-0.47058823529411764
3.762,-0.47058823529411764
3.7640000000000002,-0.6470588235294118
3.766,-0.6470588235294118
3.7680000000000002,-0.7647058823529411
3.77,-0.7647058823529411
3.7720000000000002,-0.7647058823529411
3.774,-0.7058823529411765
3.7760000000000002,-0.29411764705882354
3.778,-0.35294117647058826
3.7800000000000002,-0.17647058823529413
3.782,-0.47058823529411764
3.7840000000000003,-0.7058823529411765
3.786,-0.7647058823529411
3.7880000000000003,-0.8235294117647058
3.79,-0.8823529411764706
3.7920000000000003,-0.7058823529411765
3.794,-0.5882352941176471
3.7960000000000003,-0.29411764705882354
3.798,-0.29411764705882354
3.8000000000000003,-0.29411764705882354
3.802,-0.35294117647058826
3.8040000000000003,-0.5294117647058824
3.806,-0.6470588235294118
3.8080000000000003,-0.7058823529411765
3.81,-0.9411764705882353
3.8120000000000003,-0.8823529411764706
3.814,-0.8235294117647058
3.8160000000000003,-0.7058823529411765
3.818,-0.4117647058823529
3.8200000000000003,-0.4117647058823529
3.822,-0.6470588235294118
3.8240000000000003,-0.6470588235294118
3.826,-0.7647058823529411
3.8280000000000003,-0.8823529411764706
3.83,-0.8823529411764706
3.8320000000000003,-0.7647058823529411
3.834,-0.5294117647058824
3.8360000000000003,-0.4117647058823529
3.838,-0.29411764705882354
3.84,-0.4117647058823529
3.842,-0.4117647058823529
3.844,-0.47058823529411764
3.846,-0.5294117647058824
3.848,-0.7058823529411765
3.85,-0.7058823529411765
3.852,-0.47058823529411764
3.854,-0.4117647058823529
3.856,-0.35294117647058826
3.858,-0.23529411764705882
3.86,-0.17647058823529413
3.862,-0.35294117647058826
3.864,-0.4117647058823529
3.866,-0.47058823529411764
3.868,-0.5882352941176471
3.87,-0.5294117647058824
3.872,-0.5882352941176471
3.874,-0.29411764705882354
3.876,0.058823529411764705
3.878,0.11764705882352941
3.88,0.23529411764705882
3.882,0.35294117647058826
3.884,0.4117647058823529
3.886,0.35294117647058826
3.888,0.4117647058823529
3.89,0.29411764705882354
3.892,0.47058823529411764
3.894,0.5294117647058824
3.896,0.6470588235294118
3.898,0.7647058823529411
3.9,0.8823529411764706
3.902,0.7647058823529411
3.904,0.6470588235294118
3.906,0.5294117647058824
3.908,0.47058823529411764
3.91,0.6470588235294118
3.912,0.7647058823529411
3.914,1.0588235294117647
3.916,1.2352941176470589
3.918,1.4705882352941178
3.92,1.5294117647058822
3.922,1.1176470588235294
3.924,1.0588235294117647
3.926,1.1764705882352942
3.928,1.0588235294117647
3.93,1.1176470588235294
3.932,1.1764705882352942
3.934,1.2941176470588236
3.936,1.4705882352941178
3.938,1.588235294117647
3.94,1.7058823529411764
3.942,1.7058823529411764
3.944,1.5294117647058822
3.946,1.588235294117647
3.948,1.411764705882353
3.95,1.4705882352941178
3.952,1.4705882352941178
3.954,1.588235294117647
3.956,1.7058823529411764
3.958,1.8235294117647058
3.96,2.0
3.962,1.8823529411764706
3.964,1.9411764705882353
3.966,1.9411764705882353
3.968,1.8235294117647058
3.97,1.8235294117647058
3.972,1.8823529411764706
3.974,1.8235294117647058
3.976,1.9411764705882353
3.978,2.1176470588235294
3.98,1.9411764705882353
3.982,1.8823529411764706
3.984,1.8823529411764706
3.986,1.8823529411764706
3.988,1.6470588235294117
3.99,1.5294117647058822
3.992,1.6470588235294117
3.994,1.6470588235294117
3.996,1.588235294117647
3.998,1.588235294117647
4.0,1.5294117647058822
4.002,1.2941176470588236
4.0040000000000004,1.2941176470588236
4.006,1.1176470588235294
4.008,1.0588235294117647
4.01,1.1176470588235294
4.0120000000000005,1.2352941176470589
4.014,1.411764705882353
4.016,1.4705882352941178
4.018,1.411764705882353
4.0200000000000005,1.2941176470588236
4.022,1.2352941176470589
4.024,1.0588235294117647
4.026,1.0
4.0280000000000005,0.8235294117647058
4.03,1.0
4.032,1.2352941176470589
4.034,1.1764705882352942
4.0360000000000005,1.2352941176470589
4.038,1.1764705882352942
4.04,1.1176470588235294
4.042,0.9411764705882353
4.0440000000000005,0.8235294117647058
4.046,0.8823529411764706
4.048,0.6470588235294118
4.05,0.8235294117647058
4.0520000000000005,0.8235294117647058
4.054,0.9411764705882353
4.056,1.0
4.058,1.1764705882352942
4.0600000000000005,1.0
4.062,0.7647058823529411
4.064,0.7058823529411765
4.066,0.5882352941176471
4.0680000000000005,0.5882352941176471
4.07,0.6470588235294118
4.072,0.8235294117647058
4.074,0.9411764705882353
4.0760000000000005,1.0
4.078,1.0
4.08,0.8235294117647058
4.082,0.7647058823529411
4.0840000000000005,0.7647058823529411
4.086,0.5294117647058824
4.088,0.7647058823529411
4.09,0.7647058823529411
4.0920000000000005,0.7647058823529411
4.094,0.8235294117647058
4.096,0.7058823529411765
4.098,0.8235294117647058
4.1,0.7058823529411765
4.102,0.4117647058823529
4.104,0.35294117647058826
4.106,0.47058823529411764
4.108,0.6470588235294118
4.11,1.0
4.112,1.5294117647058822
4.114,2.176470588235294
4.116,2.764705882352941
4.118,3.411764705882353
4.12,3.8823529411764706
4.122,4.647058823529412
4.124,5.882352941176471
4.126,7.117647058823529
4.128,8.294117647058824
4.13,8.882352941176471
4.132,8.882352941176471
4.134,8.705882352941176
4.136,8.176470588235293
4.138,7.235294117647059
4.14,6.0588235294117645
4.142,5.0588235294117645
4.144,3.823529411764706
4.146,2.235294117647059
4.148,0.8235294117647058
4.15,-0.17647058823529413
4.152,-0.5294117647058824
4.154,-0.47058823529411764
4.156,-0.23529411764705882
4.158,0.17647058823529413
4.16,0.29411764705882354
4.162,0.29411764705882354
4.164,0.47058823529411764
4.166,0.7058823529411765
4.168,1.0
4.17,1.0588235294117647
4.172,1.1764705882352942
4.174,1.411764705882353
4.176,1.2941176470588236
4.178,1.0588235294117647
4.18,0.8823529411764706
4.182,0.8235294117647058
4.184,0.7647058823529411
4.186,0.8235294117647058
4.188,0.8235294117647058
4.19,1.0
4.192,1.0588235294117647
4.194,1.2352941176470589
4.196,1.2352941176470589
4.198,1.2941176470588236
4.2,1.1176470588235294
4.202,1.1176470588235294
4.204,1.0
4.206,1.0
4.208,1.0
4.21,1.1764705882352942
4.212,1.2941176470588236
4.214,1.411764705882353
4.216,1.5294117647058822
4.218,1.2941176470588236
4.22,1.0588235294117647
4.222,0.8823529411764706
4.224,0.8235294117647058
4.226,0.8235294117647058
4.228,0.8823529411764706
4.23,1.1176470588235294
4.232,1.3529411764705883
4.234,1.4705882352941178
4.236,1.5294117647058822
4.238,1.4705882352941178
4.24,1.3529411764705883
4.242,1.2352941176470589
4.244,1.1764705882352942
4.246,1.2352941176470589
4.248,1.2941176470588236
4.25,1.411764705882353
4.252,1.4705882352941178
4.2540000000000004,1.4705882352941178
4.256,1.5294117647058822
4.258,1.5294117647058822
4.26,1.2352941176470589
4.2620000000000005,1.2352941176470589
4.264,1.411764705882353
4.266,1.2352941176470589
4.268,1.2941176470588236
4.2700000000000005,1.411764705882353
4.272,1.5294117647058822
4.274,1.7058823529411764
4.276,1.9411764705882353
4.2780000000000005,1.7647058823529411
4.28,1.6470588235294117
4.282,1.5294117647058822
4.284,1.4705882352941178
4.2860000000000005,1.5294117647058822
4.288,1.5294117647058822
4.29,1.6470588235294117
4.292,1.6470588235294117
4.2940000000000005,1.7058823529411764
4.296,1.9411764705882353
4.298,2.0
4.3,1.8823529411764706
4.3020000000000005,1.8823529411764706
4.304,1.9411764705882353
4.306,1.8823529411764706
4.308,2.176470588235294
4.3100000000000005,2.1176470588235294
4.312,2.2941176470588234
4.314,2.3529411764705883
4.316,2.4705882352941178
4.3180000000000005,2.411764705882353
4.32,2.3529411764705883
4.322,2.3529411764705883
4.324,2.3529411764705883
4.3260000000000005,2.3529411764705883
4.328,2.5294117647058822
4.33,2.6470588235294117
4.332,2.9411764705882355
4.3340000000000005,3.0588235294117645
4.336,3.176470588235294
4.338,3.0
4.34,3.0
4.3420000000000005,3.0588235294117645
4.344,3.0588235294117645
4.346,2.8823529411764706
4.348,3.0588235294117645
4.3500000000000005,3.176470588235294
4.352,3.1176470588235294
4.354,3.176470588235294
4.356,3.0
4.358,3.1176470588235294
4.36,3.0588235294117645
4.362,2.8823529411764706
4.364,2.823529411764706
4.366,2.764705882352941
4.368,2.823529411764706
4.37,3.0
4.372,2.764705882352941
4.374,2.823529411764706
4.376,2.823529411764706
4.378,2.588235294117647
4.38,2.3529411764705883
4.382,2.1176470588235294
4.384,1.9411764705882353
4.386,1.7647058823529411
4.388,1.8235294117647058
4.39,1.8235294117647058
4.392,1.7647058823529411
4.394,1.588235294117647
4.396,1.411764705882353
4.398,1.0588235294117647
4.4,1.0
4.402,0.8235294117647058
4.404,0.5882352941176471
4.406,0.47058823529411764
4.408,0.5294117647058824
4.41,0.5294117647058824
4.412,0.47058823529411764
4.414,0.5882352941176471
4.416,0.5294117647058824
4.418,0.35294117647058826
4.42,0.11764705882352941
4.422,-0.058823529411764705
4.424,-0.17647058823529413
4.426,-0.29411764705882354
4.428,-0.17647058823529413
4.43,-0.11764705882352941
4.432,0.0
4.434,0.058823529411764705
4.436,0.058823529411764705
4.438,-0.23529411764705882
4.44,-0.35294117647058826
4.442,-0.5294117647058824
4.444,-0.7058823529411765
4.446,-0.47058823529411764
4.448,-0.47058823529411764
4.45,-0.23529411764705882
4.452,-0.17647058823529413
4.454,-0.17647058823529413
4.456,-0.11764705882352941
4.458,-0.23529411764705882
4.46,-0.5882352941176471
4.462,-0.6470588235294118
4.464,-0.8823529411764706
4.466,-0.7058823529411765
4.468,-0.6470588235294118
4.47,-0.4117647058823529
4.472,-0.35294117647058826
4.474,-0.35294117647058826
4.476,-0.29411764705882354
4.478,-0.47058823529411764
4.48,-0.7058823529411765
4.482,-0.6470588235294118
4.484,-0.6470588235294118
4.486,-0.7647058823529411
4.488,-0.7058823529411765
4.49,-0.5882352941176471
4.492,-0.35294117647058826
4.494,-0.23529411764705882
4.496,-0.23529411764705882
4.498,-0.35294117647058826
4.5,-0.47058823529411764
4.502,-0.5882352941176471
4.5040000000000004,-0.7647058823529411
4.506,-0.8235294117647058
4.508,-0.6470588235294118
4.51,-0.4117647058823529
4.5120000000000005,-0.29411764705882354
4.514,-0.23529411764705882
4.516,-0.17647058823529413
4.518,-0.35294117647058826
4.5200000000000005,-0.5294117647058824
4.522,-0.5294117647058824
4.524,-0.5882352941176471
4.526,-0.47058823529411764
4.5280000000000005,-0.29411764705882354
4.53,-0.17647058823529413
4.532,-0.17647058823529413
4.534,0.0
4.5360000000000005,-0.11764705882352941
4.538,-0.4117647058823529
4.54,-0.6470588235294118
4.542,-0.47058823529411764
4.5440000000000005,-0.7647058823529411
4.546,-0.47058823529411764
4.548,-0.5882352941176471
4.55,-0.4117647058823529
4.5520000000000005,-0.11764705882352941
4.554,0.058823529411764705
4.556,-0.23529411764705882
4.558,-0.47058823529411764
4.5600000000000005,-0.47058823529411764
4.562,-0.47058823529411764
4.564,-0.7647058823529411
4.566,-0.5294117647058824
4.5680000000000005,-0.4117647058823529
4.57,-0.29411764705882354
4.572,-0.29411764705882354
4.574,-0.11764705882352941
4.5760000000000005,-0.17647058823529413
4.578,-0.4117647058823529
4.58,-0.4117647058823529
4.582,-0.5294117647058824
4.5840000000000005,-0.5882352941176471
4.586,-0.5882352941176471
4.588,-0.47058823529411764
4.59,-0.47058823529411764
4.5920000000000005,-0.5294117647058824
4.594,-0.29411764705882354
4.596,-0.47058823529411764
4.598,-0.5294117647058824
4.6000000000000005,-0.6470588235294118
4.602,-0.8235294117647058
4.604,-0.8235294117647058
4.606,-0.7058823529411765
4.6080000000000005,-0.5294117647058824
4.61,-0.4117647058823529
4.612,-0.35294117647058826
4.614,-0.29411764705882354
4.616,-0.29411764705882354
4.618,-0.4117647058823529
4.62,-0.5882352941176471
4.622,-0.8823529411764706
4.624,-1.1764705882352942
4.626,-0.8235294117647058
4.628,-0.5882352941176471
4.63,-0.5882352941176471
4.632,-0.47058823529411764
4.634,-0.4117647058823529
4.636,-0.47058823529411764
4.638,-0.5882352941176471
4.64,-0.7058823529411765
4.642,-0.8823529411764706
4.644,-0.8235294117647058
4.646,-0.5882352941176471
4.648,-0.5882352941176471
4.65,-0.5882352941176471
4.652,-0.47058823529411764
4.654,-0.4117647058823529
4.656,-0.5294117647058824
4.658,-0.7058823529411765
4.66,-0.8235294117647058
4.662,-0.8823529411764706
4.664,-0.9411764705882353
4.666,-0.8823529411764706
4.668,-0.47058823529411764
4.67,-0.5294117647058824
4.672,-0.47058823529411764
4.674,-0.4117647058823529
4.676,-0.6470588235294118
4.678,-0.6470588235294118
4.68,-0.7647058823529411
4.682,-0.8823529411764706
4.684,-0.8823529411764706
4.686,-0.7058823529411765
4.688,-0.7647058823529411
4.69,-0.7058823529411765
4.692,-0.6470588235294118
4.694,-0.5294117647058824
4.696,-0.5294117647058824
4.698,-0.7058823529411765
4.7,-0.9411764705882353
4.702,-0.8235294117647058
4.704,-0.8823529411764706
4.706,-0.7058823529411765
4.708,-0.6470588235294118
4.71,-0.7647058823529411
4.712,-0.5294117647058824
4.714,-0.5294117647058824
4.716,-0.5882352941176471
4.718,-0.7647058823529411
4.72,-0.7647058823529411
4.722,-0.8823529411764706
4.724,-0.9411764705882353
4.726,-0.7647058823529411
4.728,-0.6470588235294118
4.73,-0.5882352941176471
4.732,-0.5882352941176471
4.734,-0.47058823529411764
4.736,-0.7058823529411765
4.738,-0.7647058823529411
4.74,-0.8823529411764706
4.742,-1.0
4.744,-0.9411764705882353
4.746,-0.7647058823529411
4.748,-0.7058823529411765
4.75,-0.6470588235294118
4.752,-0.5882352941176471
4.7540000000000004,-0.4117647058823529
4.756,-0.7647058823529411
4.758,-0.8235294117647058
4.76,-0.6470588235294118
4.7620000000000005,-1.0
4.764,-0.8235294117647058
4.766,-0.7647058823529411
4.768,-0.5294117647058824
4.7700000000000005,-0.7058823529411765
4.772,-0.5882352941176471
4.774,-0.5294117647058824
4.776,-0.8235294117647058
4.7780000000000005,-0.9411764705882353
4.78,-0.8823529411764706
4.782,-1.0
4.784,-1.0588235294117647
4.7860000000000005,-0.8235294117647058
4.788,-0.5882352941176471
4.79,-0.6470588235294118
4.792,-0.5294117647058824
4.7940000000000005,-0.47058823529411764
4.796,-0.5882352941176471
4.798,-0.8823529411764706
4.8,-0.8823529411764706
4.8020000000000005,-1.0588235294117647
4.804,-1.0588235294117647
4.806,-0.8823529411764706
4.808,-0.8235294117647058
4.8100000000000005,-0.7058823529411765
4.812,-0.5294117647058824
4.814,-0.5882352941176471
4.816,-0.7647058823529411
4.8180000000000005,-0.9411764705882353
4.82,-0.8823529411764706
4.822,-0.8823529411764706
4.824,-0.7647058823529411
4.8260000000000005,-0.7647058823529411
4.828,-0.7647058823529411
4.83,-0.7647058823529411
4.832,-0.5882352941176471
4.8340000000000005,-0.7647058823529411
4.836,-0.8823529411764706
4.838,-0.8823529411764706
4.84,-0.8823529411764706
4.8420000000000005,-1.0
4.844,-0.8823529411764706
4.846,-0.7058823529411765
4.848,-0.47058823529411764
4.8500000000000005,-0.47058823529411764
4.852,-0.35294117647058826
4.854,-0.35294117647058826
4.856,-0.5294117647058824
4.8580000000000005,-0.6470588235294118
4.86,-0.6470588235294118
4.862,-0.5882352941176471
4.864,-0.5294117647058824
4.866,-0.47058823529411764
4.868,-0.4117647058823529
4.87,-0.17647058823529413
4.872,0.0
4.874,-0.058823529411764705
4.876,-0.17647058823529413
4.878,-0.23529411764705882
4.88,-0.23529411764705882
4.882,-0.17647058823529413
4.884,0.0
4.886,-0.11764705882352941
4.888,0.058823529411764705
4.89,0.11764705882352941
4.892,0.11764705882352941
4.894,-0.058823529411764705
4.896,-0.11764705882352941
4.898,-0.17647058823529413
4.9,-0.17647058823529413
4.902,-0.29411764705882354
4.904,-0.23529411764705882
4.906,-0.11764705882352941
4.908,0.11764705882352941
4.91,0.0
4.912,-0.058823529411764705
4.914,-0.35294117647058826
4.916,-0.5294117647058824
4.918,-0.7058823529411765
4.92,-0.7647058823529411
4.922,-0.9411764705882353
4.924,-0.9411764705882353
4.926,-0.8235294117647058
4.928,-0.7647058823529411
4.93,-0.5882352941176471
4.932,-0.5294117647058824
4.934,-0.7058823529411765
4.936,-0.7647058823529411
4.938,-0.8823529411764706
4.94,-1.0588235294117647
4.942,-1.2352941176470589
4.944,-1.0
4.946,-0.7647058823529411
4.948,-0.7647058823529411
4.95,-0.8235294117647058
4.952,-0.6470588235294118
4.954,-0.7058823529411765
4.956,-0.8823529411764706
4.958,-1.1176470588235294
4.96,-1.2352941176470589
4.962,-1.411764705882353
4.964,-1.2941176470588236
4.966,-0.8823529411764706
4.968,-0.9411764705882353
4.97,-0.8235294117647058
4.972,-0.7058823529411765
4.974,-0.9411764705882353
4.976,-1.1176470588235294
4.978,-1.2941176470588236
4.98,-1.1764705882352942
4.982,-1.0588235294117647
4.984,-1.1176470588235294
4.986,-1.0
4.988,-0.8823529411764706
4.99,-0.8823529411764706
4.992,-0.7647058823529411
4.994,-0.9411764705882353
4.996,-1.1764705882352942
4.998,-1.1764705882352942
5.0,-1.1764705882352942
5.002,-1.1764705882352942
5.0040000000000004,-1.0588235294117647
5.006,-1.0588235294117647
5.008,-0.9411764705882353
5.01,-1.1176470588235294
5.0120000000000005,-1.0588235294117647
5.014,-1.1764705882352942
5.016,-1.2352941176470589
5.018,-1.4705882352941178
5.0200000000000005,-1.7058823529411764
5.022,-1.7058823529411764
5.024,-1.3529411764705883
5.026,-0.8823529411764706
5.0280000000000005,-0.23529411764705882
5.03,0.4117647058823529
5.032,1.0588235294117647
5.034,1.411764705882353
5.0360000000000005,2.1176470588235294
5.038,2.8823529411764706
5.04,3.823529411764706
5.042,5.0
5.0440000000000005,6.529411764705882
5.046,7.529411764705882
5.048,7.647058823529412
5.05,7.588235294117647
5.0520000000000005,7.0
5.054,6.117647058823529
5.056,5.0
5.058,3.9411764705882355
5.0600000000000005,2.8823529411764706
5.062,1.5294117647058822
5.064,0.23529411764705882
5.066,-1.0588235294117647
5.0680000000000005,-1.9411764705882353
5.07,-2.0
5.072,-1.7058823529411764
5.074,-1.4705882352941178
5.0760000000000005,-1.4705882352941178
5.078,-1.3529411764705883
5.08,-1.2352941176470589
5.082,-1.1176470588235294
5.0840000000000005,-0.8235294117647058
5.086,-0.7058823529411765
5.088,-0.47058823529411764
5.09,-0.47058823529411764
5.0920000000000005,-0.4117647058823529
5.094,-0.6470588235294118
5.096,-0.8235294117647058
5.098,-1.0
5.1000000000000005,-1.0
5.102,-0.9411764705882353
5.104,-0.7647058823529411
5.106,-0.5882352941176471
5.1080000000000005,-0.4117647058823529
5.11,-0.29411764705882354
5.112,-0.29411764705882354
5.114,-0.35294117647058826
5.1160000000000005,-0.29411764705882354
5.118,-0.7058823529411765
5.12,-0.8823529411764706
5.122,-0.8235294117647058
5.124,-0.7058823529411765
5.126,-0.5882352941176471
5.128,-0.5882352941176471
5.13,-0.35294117647058826
5.132,-0.35294117647058826
5.134,-0.47058823529411764
5.136,-0.5882352941176471
5.138,-0.5882352941176471
5.14,-0.7058823529411765
5.142,-0.5882352941176471
5.144,-0.5294117647058824
5.146,-0.35294117647058826
5.148,-0.17647058823529413
5.15,-0.11764705882352941
5.152,-0.35294117647058826
5.154,-0.4117647058823529
5.156,-0.4117647058823529
5.158,-0.47058823529411764
5.16,-0.47058823529411764
5.162,-0.35294117647058826
5.164,-0.17647058823529413
5.166,-0.11764705882352941
5.168,-0.058823529411764705
5.17,0.11764705882352941
5.172,0.058823529411764705
5.174,-0.23529411764705882
5.176,-0.35294117647058826
5.178,-0.47058823529411764
5.18,-0.5294117647058824
5.182,-0.5294117647058824
5.184,-0.23529411764705882
5.186,-0.11764705882352941
5.188,0.058823529411764705
5.19,0.23529411764705882
5.192,0.17647058823529413
5.194,0.0
5.196,-0.058823529411764705
5.198,-0.17647058823529413
5.2,-0.11764705882352941
5.202,0.058823529411764705
5.204,0.17647058823529413
5.206,0.23529411764705882
5.208,0.35294117647058826
5.21,0.5882352941176471
5.212,0.4117647058823529
5.214,0.23529411764705882
5.216,0.29411764705882354
5.218,0.35294117647058826
5.22,0.35294117647058826
5.222,0.5882352941176471
5.224,0.7058823529411765
5.226,0.9411764705882353
5.228,1.0
5.23,1.2941176470588236
5.232,1.1764705882352942
5.234,0.9411764705882353
5.236,0.8823529411764706
5.238,0.8235294117647058
5.24,0.9411764705882353
5.242,1.1176470588235294
5.244,1.3529411764705883
5.246,1.4705882352941178
5.248,1.7647058823529411
5.25,1.8823529411764706
5.252,1.8823529411764706
5.2540000000000004,1.8823529411764706
5.256,1.7058823529411764
5.258,1.7058823529411764
5.26,1.588235294117647
5.2620000000000005,1.8823529411764706
5.264,2.0588235294117645
5.266,2.176470588235294
5.268,2.235294117647059
5.2700000000000005,2.2941176470588234
5.272,2.235294117647059
5.274,2.176470588235294
5.276,2.0588235294117645
5.2780000000000005,2.0
5.28,1.9411764705882353
5.282,2.1176470588235294
5.284,2.0588235294117645
5.2860000000000005,2.0588235294117645
5.288,2.0
5.29,2.0588235294117645
5.292,1.8235294117647058
5.2940000000000005,1.7058823529411764
5.296,1.5294117647058822
5.298,1.3529411764705883
5.3,1.2352941176470589
5.3020000000000005,1.2941176470588236
5.304,1.3529411764705883
5.306,1.2941176470588236
5.308,1.2941176470588236
5.3100000000000005,1.2352941176470589
5.312,0.9411764705882353
5.314,0.7647058823529411
5.316,0.5294117647058824
5.3180000000000005,0.17647058823529413
5.32,0.11764705882352941
5.322,0.17647058823529413
5.324,0.17647058823529413
5.3260000000000005,0.17647058823529413
5.328,0.0
5.33,0.17647058823529413
5.332,0.17647058823529413
5.3340000000000005,-0.23529411764705882
5.336,-0.4117647058823529
5.338,-0.5294117647058824
5.34,-0.47058823529411764
5.3420000000000005,-0.47058823529411764
5.344,-0.4117647058823529
5.346,-0.47058823529411764
5.348,-0.29411764705882354
5.3500000000000005,-0.23529411764705882
5.352,-0.5294117647058824
5.354,-0.5882352941176471
5.356,-0.7647058823529411
5.3580000000000005,-0.8235294117647058
5.36,-0.7647058823529411
5.362,-0.5294117647058824
5.364,-0.5294117647058824
5.3660000000000005,-0.6470588235294118
5.368,-0.5294117647058824
5.37,-0.5294117647058824
5.372,-0.6470588235294118
5.3740000000000006,-0.8235294117647058
5.376,-0.9411764705882353
5.378,-1.0
5.38,-1.0
5.382,-1.0
5.384,-0.7058823529411765
5.386,-0.7647058823529411
5.388,-0.5294117647058824
5.39,-0.5882352941176471
5.392,-0.7058823529411765
5.394,-0.8823529411764706
5.396,-1.0588235294117647
5.398,-1.0
5.4,-0.8235294117647058
5.402,-0.7647058823529411
5.404,-0.7058823529411765
5.406,-0.47058823529411764
5.408,-0.5294117647058824
5.41,-0.5882352941176471
5.412,-0.6470588235294118
5.414,-0.7058823529411765
5.416,-0.8235294117647058
5.418,-0.9411764705882353
5.42,-0.8823529411764706
5.422,-0.7058823529411765
5.424,-0.7647058823529411
5.426,-0.5882352941176471
5.428,-0.35294117647058826
5.43,-0.47058823529411764
5.432,-0.6470588235294118
5.434,-0.6470588235294118
5.436,-0.6470588235294118
5.438,-0.7058823529411765
5.44,-0.7058823529411765
5.442,-0.5294117647058824
5.444,-0.29411764705882354
5.446,-0.23529411764705882
5.448,-0.11764705882352941
5.45,-0.29411764705882354
5.452,-0.6470588235294118
5.454,-0.7058823529411765
5.456,-0.7647058823529411
5.458,-0.7647058823529411
5.46,-0.6470588235294118
5.462,-0.5294117647058824
5.464,-0.4117647058823529
5.466,-0.29411764705882354
5.468,-0.29411764705882354
5.47,-0.4117647058823529
5.472,-0.5882352941176471
5.474,-0.5294117647058824
5.476,-0.5882352941176471
5.478,-0.6470588235294118
5.48,-0.5882352941176471
5.482,-0.47058823529411764
5.484,-0.29411764705882354
5.486,-0.23529411764705882
5.488,-0.17647058823529413
5.49,-0.23529411764705882
5.492,-0.4117647058823529
5.494,-0.4117647058823529
5.496,-0.5294117647058824
5.498,-0.6470588235294118
5.5,-0.5294117647058824
5.502,-0.4117647058823529
5.5040000000000004,-0.4117647058823529
5.506,-0.35294117647058826
5.508,-0.29411764705882354
5.51,-0.35294117647058826
5.5120000000000005,-0.5294117647058824
5.514,-0.47058823529411764
5.516,-0.5882352941176471
5.518,-0.6470588235294118
5.5200000000000005,-0.7058823529411765
5.522,-0.47058823529411764
5.524,-0.35294117647058826
5.526,-0.35294117647058826
5.5280000000000005,-0.35294117647058826
5.53,-0.5882352941176471
5.532,-0.6470588235294118
5.534,-0.7058823529411765
5.5360000000000005,-0.7058823529411765
5.538,-0.8235294117647058
5.54,-0.7058823529411765
5.542,-0.5882352941176471
5.5440000000000005,-0.5294117647058824
5.546,-0.47058823529411764
5.548,-0.35294117647058826
5.55,-0.47058823529411764
5.5520000000000005,-0.7058823529411765
5.554,-0.7058823529411765
5.556,-0.7647058823529411
5.558,-0.8235294117647058
5.5600000000000005,-0.7647058823529411
5.562,-0.6470588235294118
5.564,-0.5294117647058824
5.566,-0.5294117647058824
5.5680000000000005,-0.5294117647058824
5.57,-0.6470588235294118
5.572,-0.5882352941176471
5.574,-0.6470588235294118
5.5760000000000005,-0.8235294117647058
5.578,-0.8235294117647058
5.58,-0.7647058823529411
5.582,-0.7058823529411765
5.5840000000000005,-0.5294117647058824
5.586,-0.47058823529411764
5.588,-0.5882352941176471
5.59,-0.6470588235294118
5.5920000000000005,-0.5882352941176471
5.594,-0.7058823529411765
5.596,-0.8235294117647058
5.598,-0.8235294117647058
5.6000000000000005,-0.7058823529411765
5.602,-0.6470588235294118
5.604,-0.6470588235294118
5.606,-0.5294117647058824
5.6080000000000005,-0.6470588235294118
5.61,-0.7647058823529411
5.612,-0.8235294117647058
5.614,-0.7647058823529411
5.6160000000000005,-0.8823529411764706
5.618,-1.0
5.62,-0.8235294117647058
5.622,-0.7058823529411765
5.6240000000000006,-0.5882352941176471
5.626,-0.5882352941176471
5.628,-0.5294117647058824
5.63,-0.6470588235294118
5.632,-0.7647058823529411
5.634,-0.6470588235294118
5.636,-0.7647058823529411
5.638,-0.8235294117647058
5.64,-0.6470588235294118
5.642,-0.6470588235294118
5.644,-0.7058823529411765
5.646,-0.47058823529411764
5.648,-0.35294117647058826
5.65,-0.5882352941176471
5.652,-0.7647058823529411
5.654,-1.0
5.656,-0.7647058823529411
5.658,-0.8235294117647058
5.66,-0.7058823529411765
5.662,-0.47058823529411764
5.664,-0.5294117647058824
5.666,-0.5294117647058824
5.668,-0.47058823529411764
5.67,-0.6470588235294118
5.672,-0.7647058823529411
5.674,-0.9411764705882353
5.676,-1.0588235294117647
5.678,-0.9411764705882353
5.68,-0.7647058823529411
5.682,-0.5882352941176471
5.684,-0.5882352941176471
5.686,-0.5882352941176471
5.688,-0.6470588235294118
5.69,-0.8235294117647058
5.692,-0.7058823529411765
5.694,-0.7647058823529411
5.696,-0.7647058823529411
5.698,-0.9411764705882353
5.7,-0.7647058823529411
5.702,-0.6470588235294118
5.704,-0.5294117647058824
5.706,-0.5294117647058824
5.708,-0.5294117647058824
5.71,-0.6470588235294118
5.712,-0.7647058823529411
5.714,-0.7647058823529411
5.716,-0.8823529411764706
5.718,-0.8823529411764706
5.72,-0.7647058823529411
5.722,-0.47058823529411764
5.724,-0.47058823529411764
5.726,-0.4117647058823529
5.728,-0.47058823529411764
5.73,-0.5294117647058824
5.732,-0.7058823529411765
5.734,-0.6470588235294118
5.736,-0.8823529411764706
5.738,-0.8235294117647058
5.74,-0.6470588235294118
5.742,-0.4117647058823529
5.744,-0.5294117647058824
5.746,-0.5294117647058824
5.748,-0.6470588235294118
5.75,-0.7647058823529411
5.752,-0.8235294117647058
5.7540000000000004,-0.8823529411764706
5.756,-1.0588235294117647
5.758,-0.8235294117647058
5.76,-0.6470588235294118
5.7620000000000005,-0.5882352941176471
5.764,-0.47058823529411764
5.766,-0.47058823529411764
5.768,-0.47058823529411764
5.7700000000000005,-0.7647058823529411
5.772,-0.7058823529411765
5.774,-1.0
5.776,-0.8823529411764706
5.7780000000000005,-0.8823529411764706
5.78,-0.5882352941176471
5.782,-0.35294117647058826
5.784,-0.11764705882352941
5.7860000000000005,0.0
5.788,-0.17647058823529413
5.79,-0.29411764705882354
5.792,-0.47058823529411764
5.7940000000000005,-0.5882352941176471
5.796,-0.5294117647058824
5.798,-0.4117647058823529
5.8,-0.23529411764705882
5.8020000000000005,-0.11764705882352941
5.804,0.0
5.806,0.23529411764705882
5.808,-0.11764705882352941
5.8100000000000005,-0.23529411764705882
5.812,-0.11764705882352941
5.814,-0.11764705882352941
5.816,-0.17647058823529413
5.8180000000000005,0.0
5.82,0.29411764705882354
5.822,0.35294117647058826
5.824,0.47058823529411764
5.8260000000000005,0.47058823529411764
5.828,0.5882352941176471
5.83,0.6470588235294118
5.832,0.8235294117647058
5.8340000000000005,0.8235294117647058
5.836,0.8823529411764706
5.838,1.0
5.84,1.2352941176470589
5.8420000000000005,1.411764705882353
5.844,1.5294117647058822
5.846,1.588235294117647
5.848,1.3529411764705883
5.8500000000000005,1.2941176470588236
5.852,1.1764705882352942
5.854,1.0
5.856,0.9411764705882353
5.8580000000000005,1.1764705882352942
5.86,1.1764705882352942
5.862,1.2941176470588236
5.864,1.2352941176470589
5.8660000000000005,1.3529411764705883
5.868,1.2352941176470589
5.87,1.2352941176470589
5.872,1.0588235294117647
5.8740000000000006,1.1176470588235294
5.876,0.9411764705882353
5.878,1.0
5.88,1.2352941176470589
5.882000000000001,1.2352941176470589
5.884,1.411764705882353
5.886,1.411764705882353
5.888,1.2941176470588236
5.89,1.0588235294117647
5.892,1.0588235294117647
5.894,0.9411764705882353
5.896,0.7647058823529411
5.898,0.8823529411764706
5.9,1.0588235294117647
5.902,1.1176470588235294
5.904,1.1176470588235294
5.906,1.411764705882353
5.908,1.1764705882352942
5.91,1.0588235294117647
5.912,1.1764705882352942
5.914,1.0
5.916,0.8235294117647058
5.918,0.8235294117647058
5.92,1.0
5.922,1.1764705882352942
5.924,1.1764705882352942
5.926,1.0588235294117647
5.928,1.1764705882352942
5.93,1.0
5.932,1.0
5.934,0.8235294117647058
5.936,0.8235294117647058
5.938,0.8823529411764706
5.94,0.8823529411764706
5.942,0.8235294117647058
5.944,1.0
5.946,0.8235294117647058
5.948,0.8235294117647058
5.95,0.6470588235294118
5.952,0.5294117647058824
5.954,0.35294117647058826
5.956,0.35294117647058826
5.958,0.5882352941176471
5.96,0.9411764705882353
5.962,1.6470588235294117
5.964,2.5294117647058822
5.966,3.0588235294117645
5.968,3.588235294117647
5.97,4.294117647058823
5.972,4.882352941176471
5.974,5.823529411764706
5.976,7.0
5.978,8.588235294117647
5.98,10.0
5.982,10.176470588235293
5.984,10.117647058823529
5.986,9.529411764705882
5.988,8.588235294117647
5.99,7.470588235294118
5.992,6.411764705882353
5.994,5.0
5.996,3.7058823529411766
5.998,2.411764705882353
6.0,1.0588235294117647
6.002,0.11764705882352941
6.0040000000000004,0.11764705882352941
6.006,0.47058823529411764
6.008,0.35294117647058826
6.01,0.47058823529411764
6.0120000000000005,0.5882352941176471
6.014,0.8235294117647058
6.016,1.0588235294117647
6.018,1.3529411764705883
6.0200000000000005,1.411764705882353
6.022,1.5294117647058822
6.024,1.5294117647058822
6.026,1.411764705882353
6.0280000000000005,1.2941176470588236
6.03,1.2352941176470589
6.032,1.1176470588235294
6.034,1.0
6.0360000000000005,1.0588235294117647
6.038,1.1764705882352942
6.04,1.2352941176470589
6.042,1.2941176470588236
6.0440000000000005,1.4705882352941178
6.046,1.4705882352941178
6.048,1.2941176470588236
6.05,1.2352941176470589
6.0520000000000005,1.2352941176470589
6.054,1.0
6.056,1.0588235294117647
6.058,1.2352941176470589
6.0600000000000005,1.2352941176470589
6.062,1.2941176470588236
6.064,1.3529411764705883
6.066,1.411764705882353
6.0680000000000005,1.2352941176470589
6.07,1.1176470588235294
6.072,1.1176470588235294
6.074,1.0
6.0760000000000005,1.1176470588235294
6.078,1.2941176470588236
6.08,1.411764705882353
6.082,1.4705882352941178
6.0840000000000005,1.588235294117647
6.086,1.7058823529411764
6.088,1.5294117647058822
6.09,1.2941176470588236
6.0920000000000005,1.2352941176470589
6.094,1.2941176470588236
6.096,1.3529411764705883
6.098,1.5294117647058822
6.1000000000000005,1.4705882352941178
6.102,1.7058823529411764
6.104,1.8823529411764706
6.106,1.7647058823529411
6.1080000000000005,1.588235294117647
6.11,1.411764705882353
6.112,1.411764705882353
6.114,1.411764705882353
6.1160000000000005,1.411764705882353
6.118,1.588235294117647
6.12,1.7058823529411764
6.122,1.9411764705882353
6.1240000000000006,2.0588235294117645
6.126,1.9411764705882353
6.128,1.8823529411764706
6.13,1.9411764705882353
6.132000000000001,1.9411764705882353
6.134,1.7647058823529411
6.136,1.7058823529411764
6.138,1.8235294117647058
6.140000000000001,1.8235294117647058
6.142,1.8235294117647058
6.144,1.8823529411764706
6.146,1.7058823529411764
6.148,1.9411764705882353
6.15,2.0588235294117645
6.152,1.9411764705882353
6.154,1.8235294117647058
6.156,2.0588235294117645
6.158,2.235294117647059
6.16,2.3529411764705883
6.162,2.6470588235294117
6.164,2.588235294117647
6.166,2.7058823529411766
6.168,2.7058823529411766
6.17,2.823529411764706
6.172,2.7058823529411766
6.174,2.6470588235294117
6.176,2.8823529411764706
6.178,3.0
6.18,3.0588235294117645
6.182,3.411764705882353
6.184,3.3529411764705883
6.186,3.176470588235294
6.188,3.1176470588235294
6.19,3.4705882352941178
6.192,3.7058823529411766
6.194,3.5294117647058822
6.196,3.5294117647058822
6.198,3.5294117647058822
6.2,3.6470588235294117
6.202,3.823529411764706
6.204,3.764705882352941
6.206,3.823529411764706
6.208,3.7058823529411766
6.21,3.7058823529411766
6.212,3.588235294117647
6.214,3.5294117647058822
6.216,3.588235294117647
6.218,3.7058823529411766
6.22,3.6470588235294117
6.222,3.6470588235294117
6.224,3.588235294117647
6.226,3.4705882352941178
6.228,3.3529411764705883
6.23,3.176470588235294
6.232,2.823529411764706
6.234,2.6470588235294117
6.236,2.588235294117647
6.238,2.588235294117647
6.24,2.588235294117647
6.242,2.4705882352941178
6.244,2.2941176470588234
6.246,1.9411764705882353
6.248,1.7647058823529411
6.25,1.6470588235294117
6.252,1.588235294117647
6.2540000000000004,1.1764705882352942
6.256,1.1764705882352942
6.258,1.1176470588235294
6.26,1.411764705882353
6.2620000000000005,1.2352941176470589
6.264,1.1764705882352942
6.266,0.9411764705882353
6.268,0.5882352941176471
6.2700000000000005,0.4117647058823529
6.272,0.29411764705882354
6.274,0.17647058823529413
6.276,0.058823529411764705
6.2780000000000005,0.23529411764705882
6.28,0.23529411764705882
6.282,0.23529411764705882
6.284,0.35294117647058826
6.2860000000000005,0.17647058823529413
6.288,-0.11764705882352941
6.29,-0.4117647058823529
6.292,-0.35294117647058826
6.2940000000000005,-0.23529411764705882
6.296,-0.17647058823529413
6.298,-0.11764705882352941
6.3,0.0
6.3020000000000005,0.058823529411764705
6.304,0.058823529411764705
6.306,-0.23529411764705882
6.308,-0.35294117647058826
6.3100000000000005,-0.5294117647058824
6.312,-0.47058823529411764
6.314,-0.4117647058823529
6.316,-0.35294117647058826
6.3180000000000005,-0.35294117647058826
6.32,-0.17647058823529413
6.322,-0.17647058823529413
6.324,-0.11764705882352941
6.3260000000000005,-0.4117647058823529
6.328,-0.5294117647058824
6.33,-0.5294117647058824
6.332,-0.6470588235294118
6.3340000000000005,-0.6470588235294118
6.336,-0.35294117647058826
6.338,-0.29411764705882354
6.34,-0.29411764705882354
6.3420000000000005,-0.35294117647058826
6.344,-0.47058823529411764
6.346,-0.6470588235294118
6.348,-0.7647058823529411
6.3500000000000005,-0.8235294117647058
6.352,-0.8823529411764706
6.354,-0.8235294117647058
6.356,-0.6470588235294118
6.3580000000000005,-0.4117647058823529
6.36,-0.35294117647058826
6.362,-0.29411764705882354
6.364,-0.47058823529411764
6.3660000000000005,-0.6470588235294118
6.368,-0.8235294117647058
6.37,-1.0588235294117647
6.372,-1.0
6.3740000000000006,-0.7647058823529411
6.376,-0.7058823529411765
6.378,-0.5294117647058824
6.38,-0.5294117647058824
6.382000000000001,-0.35294117647058826
6.384,-0.47058823529411764
6.386,-0.6470588235294118
6.388,-0.7058823529411765
6.390000000000001,-0.7058823529411765
6.392,-0.8235294117647058
6.394,-0.6470588235294118
6.396,-0.5882352941176471
6.398000000000001,-0.4117647058823529
6.4,-0.35294117647058826
6.402,-0.29411764705882354
6.404,-0.35294117647058826
6.406,-0.5294117647058824
6.408,-0.5882352941176471
6.41,-0.7058823529411765
6.412,-0.7647058823529411
6.414,-0.6470588235294118
6.416,-0.5294117647058824
6.418,-0.4117647058823529
6.42,-0.4117647058823529
6.422,-0.35294117647058826
6.424,-0.5882352941176471
6.426,-0.5882352941176471
6.428,-0.5294117647058824
6.43,-0.5882352941176471
6.432,-0.6470588235294118
6.434,-0.47058823529411764
6.436,-0.35294117647058826
6.438,-0.5294117647058824
6.44,-0.47058823529411764
6.442,-0.6470588235294118
6.444,-0.8823529411764706
6.446,-1.1176470588235294
6.448,-1.1764705882352942
6.45,-1.1176470588235294
6.452,-1.0588235294117647
6.454,-0.9411764705882353
6.456,-0.9411764705882353
6.458,-0.5882352941176471
6.46,-0.5294117647058824
6.462,-0.5882352941176471
6.464,-0.5882352941176471
6.466,-0.8235294117647058
6.468,-0.9411764705882353
6.47,-1.0
6.472,-1.1176470588235294
6.474,-0.8823529411764706
6.476,-0.7647058823529411
6.478,-0.5882352941176471
6.48,-0.5294117647058824
6.482,-0.5882352941176471
6.484,-0.6470588235294118
6.486,-0.8823529411764706
6.488,-0.9411764705882353
6.49,-1.0588235294117647
6.492,-1.0588235294117647
6.494,-0.9411764705882353
6.496,-0.9411764705882353
6.498,-0.8823529411764706
6.5,-0.8823529411764706
6.502,-0.7058823529411765
6.5040000000000004,-0.8823529411764706
6.506,-1.0588235294117647
6.508,-1.0588235294117647
6.51,-1.0
6.5120000000000005,-1.1176470588235294
6.514,-1.1176470588235294
6.516,-0.9411764705882353
6.518,-1.0
6.5200000000000005,-1.0588235294117647
6.522,-0.9411764705882353
6.524,-1.0
6.526,-1.1764705882352942
6.5280000000000005,-1.5294117647058822
6.53,-1.3529411764705883
6.532,-1.3529411764705883
6.534,-1.1176470588235294
6.5360000000000005,-1.0588235294117647
6.538,-1.0588235294117647
6.54,-0.9411764705882353
6.542,-0.9411764705882353
6.5440000000000005,-1.0
6.546,-0.9411764705882353
6.548,-1.2352941176470589
6.55,-1.3529411764705883
6.5520000000000005,-1.3529411764705883
6.554,-1.2941176470588236
6.556,-1.1176470588235294
6.558,-1.0588235294117647
6.5600000000000005,-0.9411764705882353
6.562,-0.9411764705882353
6.564,-1.0
6.566,-1.1176470588235294
6.5680000000000005,-1.1764705882352942
6.57,-1.3529411764705883
6.572,-1.411764705882353
6.574,-1.2941176470588236
6.5760000000000005,-1.3529411764705883
6.578,-1.1176470588235294
6.58,-0.9411764705882353
6.582,-0.9411764705882353
6.5840000000000005,-1.0
6.586,-1.1764705882352942
6.588,-1.3529411764705883
6.59,-1.2352941176470589
6.5920000000000005,-1.3529411764705883
6.594,-1.2941176470588236
6.596,-1.3529411764705883
6.598,-1.1764705882352942
6.6000000000000005,-1.1764705882352942
6.602,-1.1176470588235294
6.604,-1.1176470588235294
6.606,-1.2941176470588236
6.6080000000000005,-1.2941176470588236
6.61,-1.411764705882353
6.612,-1.2352941176470589
6.614,-1.0
6.6160000000000005,-1.0588235294117647
6.618,-0.9411764705882353
6.62,-1.1176470588235294
6.622,-1.1176470588235294
6.6240000000000006,-1.1764705882352942
6.626,-1.4705882352941178
6.628,-1.411764705882353
6.63,-1.4705882352941178
6.632000000000001,-1.1764705882352942
6.634,-1.0588235294117647
6.636,-1.2352941176470589
6.638,-1.2352941176470589
6.640000000000001,-1.0
6.642,-0.9411764705882353
6.644,-1.0588235294117647
6.646,-1.2941176470588236
6.648000000000001,-1.1764705882352942
6.65,-1.2352941176470589
6.652,-1.411764705882353
6.654,-1.1764705882352942
6.656000000000001,-1.1176470588235294
6.658,-1.0
6.66,-1.0
6.662,-1.0
6.664,-1.1176470588235294
6.666,-1.2941176470588236
6.668,-1.2941176470588236
6.67,-1.3529411764705883
6.672,-1.2941176470588236
6.674,-0.8823529411764706
6.676,-0.8235294117647058
6.678,-0.7647058823529411
6.68,-0.6470588235294118
6.682,-0.5294117647058824
6.684,-0.8235294117647058
6.686,-0.9411764705882353
6.688,-0.9411764705882353
6.69,-0.9411764705882353
6.692,-1.0
6.694,-0.9411764705882353
6.696,-0.8235294117647058
6.698,-0.8235294117647058
6.7,-0.6470588235294118
6.702,-0.5294117647058824
6.704,-0.6470588235294118
6.706,-0.7647058823529411
6.708,-0.7647058823529411
6.71,-0.7647058823529411
6.712,-0.5294117647058824
6.714,-0.5882352941176471
6.716,-0.29411764705882354
6.718,-0.47058823529411764
6.72,-0.11764705882352941
6.722,-0.4117647058823529
6.724,-0.47058823529411764
6.726,-0.5882352941176471
6.728,-0.6470588235294118
6.73,-0.7647058823529411
6.732,-0.6470588235294118
6.734,-0.5294117647058824
6.736,-0.5294117647058824
6.738,-0.5882352941176471
6.74,-0.4117647058823529
6.742,-0.8823529411764706
6.744,-1.1176470588235294
6.746,-1.1176470588235294
6.748,-1.1764705882352942
6.75,-1.3529411764705883
6.752,-1.4705882352941178
6.7540000000000004,-1.2941176470588236
6.756,-0.9411764705882353
6.758,-1.2352941176470589
6.76,-1.2941176470588236
6.7620000000000005,-1.3529411764705883
6.764,-1.3529411764705883
6.766,-1.2941176470588236
6.768,-1.2941176470588236
6.7700000000000005,-1.5294117647058822
6.772,-1.411764705882353
6.774,-1.1764705882352942
6.776,-1.411764705882353
6.7780000000000005,-1.1176470588235294
6.78,-1.1176470588235294
6.782,-1.2941176470588236
6.784,-1.2941176470588236
6.7860000000000005,-1.3529411764705883
6.788,-1.4705882352941178
6.79,-1.588235294117647
6.792,-1.588235294117647
6.7940000000000005,-1.3529411764705883
6.796,-1.2941176470588236
6.798,-1.3529411764705883
6.8,-1.2352941176470589
6.8020000000000005,-1.4705882352941178
6.804,-1.588235294117647
6.806,-1.5294117647058822
6.808,-1.5294117647058822
6.8100000000000005,-1.588235294117647
6.812,-1.5294117647058822
6.814,-1.2941176470588236
6.816,-1.2352941176470589
6.8180000000000005,-1.1764705882352942
6.82,-1.2941176470588236
6.822,-1.3529411764705883
6.824,-1.588235294117647
6.8260000000000005,-1.588235294117647
6.828,-1.588235294117647
6.83,-1.588235294117647
6.832,-1.8235294117647058
6.8340000000000005,-1.7058823529411764
6.836,-1.5294117647058822
6.838,-1.5294117647058822
6.84,-1.6470588235294117
6.8420000000000005,-1.8823529411764706
6.844,-2.176470588235294
6.846,-2.0588235294117645
6.848,-1.9411764705882353
6.8500000000000005,-1.4705882352941178
6.852,-0.7058823529411765
6.854,-0.058823529411764705
6.856,0.5294117647058824
6.8580000000000005,1.2352941176470589
6.86,2.1176470588235294
6.862,2.8823529411764706
6.864,3.8823529411764706
6.8660000000000005,5.117647058823529
6.868,6.0588235294117645
6.87,6.529411764705882
6.872,6.529411764705882
6.8740000000000006,6.176470588235294
6.876,5.647058823529412
6.878,4.882352941176471
6.88,4.235294117647059
6.882000000000001,3.0
6.884,1.588235294117647
6.886,-0.11764705882352941
6.888,-1.3529411764705883
6.890000000000001,-2.2941176470588234
6.892,-2.5294117647058822
6.894,-2.5294117647058822
6.896,-2.235294117647059
6.898000000000001,-1.9411764705882353
6.9,-1.8823529411764706
6.902,-1.7647058823529411
6.904,-1.4705882352941178
6.906000000000001,-1.2352941176470589
6.908,-1.2941176470588236
6.91,-1.0588235294117647
6.912,-1.0588235294117647
6.914,-0.9411764705882353
6.916,-0.9411764705882353
6.918,-0.9411764705882353
6.92,-1.0
6.922,-1.0588235294117647
6.924,-1.2352941176470589
6.926,-1.3529411764705883
6.928,-1.3529411764705883
6.93,-1.3529411764705883
6.932,-1.1176470588235294
6.934,-1.1176470588235294
6.936,-1.1176470588235294
6.938,-0.8823529411764706
6.94,-1.0
6.942,-1.1176470588235294
6.944,-1.1176470588235294
6.946,-1.0588235294117647
6.948,-1.2352941176470589
6.95,-1.0588235294117647
6.952,-0.7647058823529411
6.954,-0.8823529411764706
6.956,-0.8823529411764706
6.958,-0.7647058823529411
6.96,-0.7058823529411765
6.962,-0.8235294117647058
6.964,-1.0588235294117647
6.966,-1.1176470588235294
6.968,-1.1764705882352942
6.97,-1.0588235294117647
6.972,-0.7647058823529411
6.974,-0.7058823529411765
6.976,-0.6470588235294118
6.978,-0.35294117647058826
6.98,-0.6470588235294118
6.982,-0.8235294117647058
6.984,-0.8235294117647058
6.986,-0.8823529411764706
6.988,-0.8235294117647058
6.99,-0.8235294117647058
6.992,-0.7058823529411765
6.994,-0.6470588235294118
6.996,-0.5882352941176471
6.998,-0.47058823529411764
7.0,-0.6470588235294118
7.002,-0.5882352941176471
7.0040000000000004,-0.5294117647058824
7.006,-0.6470588235294118
7.008,-0.7058823529411765
7.01,-0.47058823529411764
7.0120000000000005,-0.35294117647058826
7.014,-0.35294117647058826
7.016,-0.23529411764705882
7.018,-0.23529411764705882
7.0200000000000005,-0.4117647058823529
7.022,-0.4117647058823529
7.024,-0.4117647058823529
7.026,-0.4117647058823529
7.0280000000000005,-0.47058823529411764
7.03,-0.4117647058823529
7.032,-0.058823529411764705
7.034,0.23529411764705882
7.0360000000000005,0.23529411764705882
7.038,0.23529411764705882
7.04,0.11764705882352941
7.042,0.17647058823529413
7.0440000000000005,0.11764705882352941
7.046,0.11764705882352941
7.048,0.17647058823529413
7.05,0.23529411764705882
7.0520000000000005,0.29411764705882354
7.054,0.23529411764705882
7.056,0.4117647058823529
7.058,0.6470588235294118
7.0600000000000005,0.7647058823529411
7.062,0.6470588235294118
7.064,0.7058823529411765
7.066,0.7058823529411765
7.0680000000000005,0.8235294117647058
7.07,1.1764705882352942
7.072,1.3529411764705883
7.074,1.3529411764705883
7.0760000000000005,1.2352941176470589
7.078,1.4705882352941178
7.08,1.4705882352941178
7.082,1.3529411764705883
7.0840000000000005,1.2352941176470589
7.086,1.3529411764705883
7.088,1.2941176470588236
7.09,1.4705882352941178
7.0920000000000005,1.4705882352941178
7.094,1.5294117647058822
7.096,1.7058823529411764
7.098,1.7647058823529411
7.1000000000000005,1.588235294117647
7.102,1.5294117647058822
7.104,1.5294117647058822
7.106,1.3529411764705883
7.1080000000000005,1.2941176470588236
7.11,1.5294117647058822
7.112,1.588235294117647
7.114,1.588235294117647
7.1160000000000005,1.5294117647058822
7.118,1.5294117647058822
7.12,1.3529411764705883
7.122,1.0
7.1240000000000006,0.8823529411764706
7.126,0.7647058823529411
7.128,0.7058823529411765
7.13,0.6470588235294118
7.132000000000001,0.5882352941176471
7.134,0.35294117647058826
7.136,0.47058823529411764
7.138,0.35294117647058826
7.140000000000001,0.23529411764705882
7.142,-0.17647058823529413
7.144,-0.29411764705882354
7.146,-0.35294117647058826
7.148000000000001,-0.35294117647058826
7.15,-0.35294117647058826
7.152,-0.35294117647058826
7.154,-0.35294117647058826
7.156000000000001,-0.23529411764705882
7.158,-0.47058823529411764
7.16,-0.5882352941176471
7.162,-0.8823529411764706
7.164000000000001,-1.0
7.166,-0.9411764705882353
7.168,-0.9411764705882353
7.17,-0.7647058823529411
7.172,-0.8235294117647058
7.174,-0.7647058823529411
7.176,-0.6470588235294118
7.178,-0.8823529411764706
7.18,-1.0588235294117647
7.182,-1.3529411764705883
7.184,-1.1764705882352942
7.186,-1.2941176470588236
7.188,-1.3529411764705883
7.19,-1.2352941176470589
7.192,-1.1176470588235294
7.194,-1.0588235294117647
7.196,-0.8823529411764706
7.198,-0.7058823529411765
7.2,-1.1176470588235294
7.202,-1.1764705882352942
7.204,-1.4705882352941178
7.206,-1.3529411764705883
7.208,-1.3529411764705883
7.21,-1.1764705882352942
7.212,-1.1764705882352942
7.214,-1.1764705882352942
7.216,-1.0588235294117647
7.218,-1.0588235294117647
7.22,-1.1764705882352942
7.222,-1.2941176470588236
7.224,-1.2352941176470589
7.226,-1.3529411764705883
7.228,-1.2352941176470589
7.23,-1.0588235294117647
7.232,-0.9411764705882353
7.234,-0.8823529411764706
7.236,-0.8823529411764706
7.238,-1.1176470588235294
7.24,-1.1764705882352942
7.242,-1.2352941176470589
7.244,-1.411764705882353
7.246,-1.411764705882353
7.248,-1.3529411764705883
7.25,-1.1176470588235294
7.252,-1.1176470588235294
7.2540000000000004,-1.0588235294117647
7.256,-0.8235294117647058
7.258,-1.1176470588235294
7.26,-1.1176470588235294
7.2620000000000005,-1.0588235294117647
7.264,-1.2352941176470589
7.266,-1.2941176470588236
7.268,-1.0588235294117647
7.2700000000000005,-0.8235294117647058
7.272,-0.8235294117647058
7.274,-0.8235294117647058
7.276,-0.8235294117647058
7.2780000000000005,-1.0
7.28,-1.1764705882352942
7.282,-1.1764705882352942
7.284,-1.1764705882352942
7.2860000000000005,-1.2941176470588236
7.288,-1.2941176470588236
7.29,-1.0588235294117647
7.292,-1.0588235294117647
7.2940000000000005,-0.8235294117647058
7.296,-0.8235294117647058
7.298,-0.8823529411764706
7.3,-1.1176470588235294
7.3020000000000005,-1.2941176470588236
7.304,-1.1764705882352942
7.306,-1.1764705882352942
7.308,-1.1176470588235294
7.3100000000000005,-1.1176470588235294
7.312,-0.9411764705882353
7.314,-0.8823529411764706
7.316,-0.5882352941176471
7.3180000000000005,-0.7647058823529411
7.32,-1.0
7.322,-1.0588235294117647
7.324,-1.2941176470588236
7.3260000000000005,-1.3529411764705883
7.328,-1.1764705882352942
7.33,-1.1176470588235294
7.332,-1.0
7.3340000000000005,-0.7647058823529411
7.336,-0.7058823529411765
7.338,-0.7647058823529411
7.34,-1.1176470588235294
7.3420000000000005,-1.411764705882353
7.344,-1.1764705882352942
7.346,-1.1764705882352942
7.348,-1.2352941176470589
7.3500000000000005,-1.0
7.352,-0.8823529411764706
7.354,-0.8823529411764706
7.356,-0.8235294117647058
7.3580000000000005,-1.0
7.36,-1.1764705882352942
7.362,-1.3529411764705883
7.364,-1.411764705882353
7.3660000000000005,-1.3529411764705883
7.368,-1.1764705882352942
7.37,-0.9411764705882353
7.372,-1.0588235294117647
7.3740000000000006,-1.0588235294117647
7.376,-0.8235294117647058
7.378,-1.1176470588235294
7.38,-1.3529411764705883
7.382000000000001,-1.3529411764705883
7.384,-1.3529411764705883
7.386,-1.411764705882353
7.388,-1.3529411764705883
7.390000000000001,-1.1176470588235294
7.392,-1.1764705882352942
7.394,-1.1176470588235294
7.396,-0.8823529411764706
7.398000000000001,-1.1176470588235294
7.4,-1.2941176470588236
7.402,-1.4705882352941178
7.404,-1.411764705882353
7.406000000000001,-1.1764705882352942
7.408,-1.3529411764705883
7.41,-1.2941176470588236
7.412,-1.1764705882352942
7.414000000000001,-0.9411764705882353
7.416,-1.1176470588235294
7.418,-1.1176470588235294
7.42,-1.2941176470588236
7.422000000000001,-1.5294117647058822
7.424,-1.411764705882353
7.426,-1.4705882352941178
7.428,-1.411764705882353
7.43,-1.2941176470588236
7.432,-1.2352941176470589
7.434,-1.1176470588235294
7.436,-1.1764705882352942
7.438,-1.2352941176470589
7.44,-1.411764705882353
7.442,-1.411764705882353
7.444,-1.4705882352941178
7.446,-1.411764705882353
7.448,-1.2352941176470589
7.45,-1.1176470588235294
7.452,-1.1176470588235294
7.454,-1.0588235294117647
7.456,-1.1764705882352942
7.458,-1.2352941176470589
7.46,-1.3529411764705883
7.462,-1.3529411764705883
7.464,-1.6470588235294117
7.466,-1.588235294117647
7.468,-1.411764705882353
7.47,-1.411764705882353
7.472,-1.2941176470588236
7.474,-1.2352941176470589
7.476,-1.1176470588235294
7.478,-1.3529411764705883
7.48,-1.5294117647058822
7.482,-1.5294117647058822
7.484,-1.3529411764705883
7.486,-1.4705882352941178
7.488,-1.2352941176470589
7.49,-1.2352941176470589
7.492,-1.1176470588235294
7.494,-1.1176470588235294
7.496,-1.2941176470588236
7.498,-1.2352941176470589
7.5,-1.2352941176470589
7.502,-1.3529411764705883
7.5040000000000004,-1.588235294117647
7.506,-1.7058823529411764
7.508,-1.3529411764705883
7.51,-1.1764705882352942
7.5120000000000005,-1.2941176470588236
7.514,-1.1176470588235294
7.516,-1.1176470588235294
7.518,-1.2941176470588236
7.5200000000000005,-1.3529411764705883
7.522,-1.411764705882353
7.524,-1.5294117647058822
7.526,-1.6470588235294117
7.5280000000000005,-1.4705882352941178
7.53,-1.3529411764705883
7.532,-1.1764705882352942
7.534,-1.1764705882352942
7.5360000000000005,-1.2941176470588236
7.538,-1.2352941176470589
7.54,-1.2352941176470589
7.542,-1.1764705882352942
7.5440000000000005,-1.4705882352941178
7.546,-1.2352941176470589
7.548,-0.9411764705882353
7.55,-0.9411764705882353
7.5520000000000005,-0.7058823529411765
7.554,-0.7647058823529411
7.556,-0.7647058823529411
7.558,-0.9411764705882353
7.5600000000000005,-1.1176470588235294
7.562,-1.1764705882352942
7.564,-1.2941176470588236
7.566,-1.2352941176470589
7.5680000000000005,-0.8823529411764706
7.57,-0.5882352941176471
7.572,-0.5882352941176471
7.574,-0.5294117647058824
7.5760000000000005,-0.5882352941176471
7.578,-0.7647058823529411
7.58,-0.8235294117647058
7.582,-0.6470588235294118
7.5840000000000005,-0.7647058823529411
7.586,-0.6470588235294118
7.588,-0.7058823529411765
7.59,-0.47058823529411764
7.5920000000000005,-0.4117647058823529
7.594,-0.35294117647058826
7.596,-0.5294117647058824
7.598,-0.7058823529411765
7.6000000000000005,-0.7647058823529411
7.602,-0.7647058823529411
7.604,-0.8823529411764706
7.606,-0.8823529411764706
7.6080000000000005,-0.8823529411764706
7.61,-0.8823529411764706
7.612,-0.5882352941176471
7.614,-0.8235294117647058
7.6160000000000005,-1.1176470588235294
7.618,-1.1176470588235294
7.62,-1.2941176470588236
7.622,-1.3529411764705883
7.6240000000000006,-1.588235294117647
7.626,-1.2941176470588236
7.628,-1.2352941176470589
7.63,-1.3529411764705883
7.632000000000001,-1.2352941176470589
7.634,-1.1764705882352942
7.636,-1.2352941176470589
7.638,-1.3529411764705883
7.640000000000001,-1.588235294117647
7.642,-1.6470588235294117
7.644,-1.5294117647058822
7.646,-1.5294117647058822
7.648000000000001,-1.411764705882353
7.65,-1.3529411764705883
7.652,-1.1764705882352942
7.654,-1.1176470588235294
7.656000000000001,-1.2352941176470589
7.658,-1.411764705882353
7.66,-1.411764705882353
7.662,-1.411764705882353
7.664000000000001,-1.7647058823529411
7.666,-1.5294117647058822
7.668,-1.411764705882353
7.67,-1.3529411764705883
7.672000000000001,-1.588235294117647
7.674,-1.411764705882353
7.676,-1.2941176470588236
7.678,-1.2941176470588236
7.68,-1.3529411764705883
7.682,-1.5294117647058822
7.684,-1.588235294117647
7.686,-1.588235294117647
7.688,-1.4705882352941178
7.69,-1.2352941176470589
7.692,-1.2941176470588236
7.694,-1.2941176470588236
7.696,-1.588235294117647
7.698,-1.588235294117647
7.7,-1.7647058823529411
7.702,-1.8823529411764706
7.704,-1.8823529411764706
7.706,-1.7058823529411764
7.708,-1.7647058823529411
7.71,-2.0
7.712,-1.7647058823529411
7.714,-1.588235294117647
7.716,-1.3529411764705883
7.718,-0.9411764705882353
7.72,-0.47058823529411764
7.722,0.0
7.724,0.35294117647058826
7.726,1.1176470588235294
7.728,1.8235294117647058
7.73,2.823529411764706
7.732,4.0588235294117645
7.734,4.882352941176471
7.736,5.882352941176471
7.738,5.705882352941177
7.74,5.470588235294118
7.742,4.647058823529412
7.744,4.117647058823529
7.746,3.3529411764705883
7.748,2.823529411764706
7.75,2.0588235294117645
7.752,1.0
7.7540000000000004,-0.29411764705882354
7.756,-1.588235294117647
7.758,-2.588235294117647
7.76,-2.6470588235294117
7.7620000000000005,-2.411764705882353
7.764,-2.1176470588235294
7.766,-1.7647058823529411
7.768,-1.588235294117647
7.7700000000000005,-1.2941176470588236
7.772,-1.1176470588235294
7.774,-1.0
7.776,-0.8823529411764706
7.7780000000000005,-1.1176470588235294
7.78,-1.2352941176470589
7.782,-1.4705882352941178
7.784,-1.411764705882353
7.7860000000000005,-1.411764705882353
7.788,-1.2941176470588236
7.79,-1.1176470588235294
7.792,-0.9411764705882353
7.7940000000000005,-0.8823529411764706
7.796,-1.0
7.798,-1.1764705882352942
7.8,-1.411764705882353
7.8020000000000005,-1.4705882352941178
7.804,-1.2941176470588236
7.806,-1.411764705882353
7.808,-1.3529411764705883
7.8100000000000005,-1.1764705882352942
7.812,-1.0588235294117647
7.814,-1.0
7.816,-1.1764705882352942
7.8180000000000005,-1.1764705882352942
7.82,-1.0588235294117647
7.822,-1.1176470588235294
7.824,-1.0
7.8260000000000005,-1.0588235294117647
7.828,-1.0588235294117647
7.83,-1.0
7.832,-0.7647058823529411
7.8340000000000005,-0.8823529411764706
7.836,-0.9411764705882353
7.838,-0.8823529411764706
7.84,-0.9411764705882353
7.8420000000000005,-1.1764705882352942
7.844,-1.0588235294117647
7.846,-0.8235294117647058
7.848,-0.6470588235294118
7.8500000000000005,-0.7647058823529411
7.852,-0.7647058823529411
7.854,-0.7058823529411765
7.856,-0.4117647058823529
7.8580000000000005,-0.29411764705882354
7.86,-0.17647058823529413
7.862,0.0
7.864,0.17647058823529413
7.8660000000000005,0.47058823529411764
7.868,0.47058823529411764
7.87,0.8823529411764706
7.872,1.0
7.8740000000000006,1.0
7.876,1.0588235294117647
7.878,1.1176470588235294
7.88,0.8235294117647058
7.882000000000001,0.9411764705882353
7.884,1.1764705882352942
7.886,1.1764705882352942
7.888,1.411764705882353
7.890000000000001,1.588235294117647
7.892,1.7058823529411764
7.894,1.4705882352941178
7.896,1.588235294117647
7.898000000000001,1.5294117647058822
7.9,1.3529411764705883
7.902,1.588235294117647
7.904,1.7058823529411764
7.906000000000001,2.1176470588235294
7.908,2.235294117647059
7.91,2.0588235294117645
7.912,2.176470588235294
7.914000000000001,2.235294117647059
7.916,2.1176470588235294
7.918,2.176470588235294
7.92,2.1176470588235294
7.922000000000001,2.176470588235294
7.924,2.2941176470588234
7.926,2.5294117647058822
7.928,2.4705882352941178
7.930000000000001,2.588235294117647
7.932,2.9411764705882355
7.934,3.0
7.936,2.9411764705882355
7.938,3.0588235294117645
7.94,2.8823529411764706
7.942,3.0588235294117645
7.944,3.0588235294117645
7.946,3.3529411764705883
7.948,3.235294117647059
7.95,3.588235294117647
7.952,3.588235294117647
7.954,3.4705882352941178
7.956,3.411764705882353
7.958,3.176470588235294
7.96,3.235294117647059
7.962,3.2941176470588234
7.964,3.3529411764705883
7.966,3.4705882352941178
7.968,3.764705882352941
7.97,3.411764705882353
7.972,3.764705882352941
7.974,3.588235294117647
7.976,3.5294117647058822
7.978,3.2941176470588234
7.98,3.0588235294117645
7.982,3.176470588235294
7.984,3.0588235294117645
7.986,3.176470588235294
7.988,3.176470588235294
7.99,3.1176470588235294
7.992,3.1176470588235294
7.994,2.823529411764706
7.996,2.5294117647058822
7.998,2.6470588235294117
8.0,2.4705882352941178
8.002,2.1176470588235294
8.004,2.0588235294117645
8.006,2.0
8.008000000000001,2.0
8.01,2.176470588235294
8.012,1.8823529411764706
8.014,1.7058823529411764
8.016,1.4705882352941178
8.018,1.3529411764705883
8.02,1.1764705882352942
8.022,1.2941176470588236
8.024000000000001,1.2352941176470589
8.026,1.1764705882352942
8.028,1.5294117647058822
8.03,1.2941176470588236
8.032,1.2352941176470589
8.034,1.0
8.036,0.8235294117647058
8.038,0.7647058823529411
8.040000000000001,0.7647058823529411
8.042,0.7058823529411765
8.044,0.8823529411764706
8.046,0.8823529411764706
8.048,0.8235294117647058
8.05,0.7647058823529411
8.052,0.7647058823529411
8.054,0.7058823529411765
8.056000000000001,0.5294117647058824
8.058,0.4117647058823529
8.06,0.4117647058823529
8.062,0.23529411764705882
8.064,0.4117647058823529
8.066,0.5882352941176471
8.068,0.5882352941176471
8.07,0.8235294117647058
8.072000000000001,0.8235294117647058
8.074,0.5882352941176471
8.076,0.5882352941176471
8.078,0.47058823529411764
8.08,0.35294117647058826
8.082,0.4117647058823529
8.084,0.5882352941176471
8.086,0.5882352941176471
8.088000000000001,0.8235294117647058
8.09,0.9411764705882353
8.092,0.6470588235294118
8.094,0.5294117647058824
8.096,0.47058823529411764
8.098,0.35294117647058826
8.1,0.47058823529411764
8.102,0.23529411764705882
8.104000000000001,0.47058823529411764
8.106,0.5882352941176471
8.108,0.5882352941176471
8.11,0.7058823529411765
8.112,0.5294117647058824
8.114,0.4117647058823529
8.116,0.4117647058823529
8.118,0.29411764705882354
8.120000000000001,0.29411764705882354
8.122,0.35294117647058826
8.124,0.47058823529411764
8.126,0.5882352941176471
8.128,0.6470588235294118
8.13,0.7647058823529411
8.132,0.5882352941176471
8.134,0.5294117647058824
8.136000000000001,0.35294117647058826
8.138,0.23529411764705882
8.14,0.17647058823529413
8.142,0.11764705882352941
8.144,0.17647058823529413
8.146,0.35294117647058826
8.148,0.47058823529411764
8.15,0.5882352941176471
8.152000000000001,0.47058823529411764
8.154,0.29411764705882354
8.156,0.23529411764705882
8.158,0.058823529411764705
8.16,0.11764705882352941
8.162,0.11764705882352941
8.164,0.35294117647058826
8.166,0.4117647058823529
8.168000000000001,0.5294117647058824
8.17,0.4117647058823529
8.172,0.4117647058823529
8.174,0.17647058823529413
8.176,0.11764705882352941
8.178,0.0
8.18,-0.11764705882352941
8.182,-0.058823529411764705
8.184000000000001,0.17647058823529413
8.186,0.17647058823529413
8.188,0.11764705882352941
8.19,0.29411764705882354
8.192,0.17647058823529413
8.194,0.058823529411764705
8.196,-0.17647058823529413
8.198,0.11764705882352941
8.2,0.058823529411764705
8.202,-0.058823529411764705
8.204,0.058823529411764705
8.206,0.11764705882352941
8.208,0.23529411764705882
8.21,0.0
8.212,0.11764705882352941
8.214,-0.17647058823529413
8.216,-0.47058823529411764
8.218,-0.5294117647058824
8.22,-0.5882352941176471
8.222,-0.35294117647058826
8.224,-0.17647058823529413
8.226,-0.058823529411764705
8.228,0.11764705882352941
8.23,-0.35294117647058826
8.232,0.0
8.234,-0.11764705882352941
8.236,-0.11764705882352941
8.238,-0.35294117647058826
8.24,-0.29411764705882354
8.242,-0.47058823529411764
8.244,-0.4117647058823529
8.246,-0.11764705882352941
8.248,-0.058823529411764705
8.25,-0.23529411764705882
8.252,-0.35294117647058826
8.254,-0.47058823529411764
8.256,-0.35294117647058826
8.258000000000001,-0.5294117647058824
8.26,-0.7058823529411765
8.262,-0.23529411764705882
8.264,0.0
8.266,-0.29411764705882354
8.268,-0.23529411764705882
8.27,0.17647058823529413
8.272,-0.4117647058823529
8.274000000000001,-0.47058823529411764
8.276,-0.7058823529411765
8.278,-0.5882352941176471
8.28,-0.4117647058823529
8.282,-0.5882352941176471
8.284,-0.4117647058823529
8.286,-0.5882352941176471
8.288,-0.47058823529411764
8.290000000000001,-0.35294117647058826
8.292,-0.35294117647058826
8.294,-0.5882352941176471
8.296,-0.5294117647058824
8.298,-0.7058823529411765
8.3,-0.9411764705882353
8.302,-0.5294117647058824
8.304,-0.47058823529411764
8.306000000000001,-0.5294117647058824
8.308,-0.47058823529411764
8.31,-0.35294117647058826
8.312,-0.7647058823529411
8.314,-0.7647058823529411
8.316,-0.6470588235294118
8.318,-0.8235294117647058
8.32,-0.8823529411764706
8.322000000000001,-0.8235294117647058
8.324,-0.6470588235294118
8.326,-0.6470588235294118
8.328,-0.7058823529411765
8.33,-0.5882352941176471
8.332,-0.7647058823529411
8.334,-0.8823529411764706
8.336,-0.8823529411764706
8.338000000000001,-1.0
8.34,-1.1176470588235294
8.342,-0.9411764705882353
8.344,-0.8235294117647058
8.346,-0.8235294117647058
8.348,-0.7647058823529411
8.35,-0.8823529411764706
8.352,-0.8823529411764706
8.354000000000001,-0.9411764705882353
8.356,-0.8823529411764706
8.358,-1.1764705882352942
8.36,-1.0
8.362,-0.9411764705882353
8.364,-0.8823529411764706
8.366,-0.6470588235294118
8.368,-0.7058823529411765
8.370000000000001,-0.9411764705882353
8.372,-1.0588235294117647
8.374,-1.2352941176470589
8.376,-1.2941176470588236
8.378,-1.2941176470588236
8.38,-1.1764705882352942
8.382,-0.8823529411764706
8.384,-0.7647058823529411
8.386000000000001,-0.6470588235294118
8.388,-0.5882352941176471
8.39,-0.6470588235294118
8.392,-0.8823529411764706
8.394,-0.7647058823529411
8.396,-0.7058823529411765
8.398,-0.7647058823529411
8.4,-0.6470588235294118
8.402000000000001,-0.47058823529411764
8.404,-0.5294117647058824
8.406,-0.47058823529411764
8.408,-0.5294117647058824
8.41,-0.5882352941176471
8.412,-0.8235294117647058
8.414,-0.9411764705882353
8.416,-0.9411764705882353
8.418000000000001,-0.7647058823529411
8.42,-0.29411764705882354
8.422,-0.35294117647058826
8.424,-0.35294117647058826
8.426,-0.35294117647058826
8.428,0.0
8.43,-0.11764705882352941
8.432,-0.23529411764705882
8.434000000000001,-0.4117647058823529
8.436,-0.47058823529411764
8.438,-0.5294117647058824
8.44,-0.47058823529411764
8.442,-0.29411764705882354
8.444,-0.35294117647058826
8.446,-0.35294117647058826
8.448,-0.29411764705882354
8.45,-0.058823529411764705
8.452,-0.4117647058823529
8.454,-0.5294117647058824
8.456,-0.7647058823529411
8.458,-1.1764705882352942
8.46,-1.0
8.462,-0.9411764705882353
8.464,-0.9411764705882353
8.466,-0.9411764705882353
8.468,-0.9411764705882353
8.47,-1.0588235294117647
8.472,-1.1764705882352942
8.474,-1.3529411764705883
8.476,-1.411764705882353
8.478,-1.588235294117647
8.48,-1.5294117647058822
8.482,-1.2352941176470589
8.484,-1.3529411764705883
8.486,-1.1764705882352942
8.488,-1.2352941176470589
8.49,-1.1176470588235294
8.492,-1.1764705882352942
8.494,-1.411764705882353
8.496,-1.5294117647058822
8.498,-1.588235294117647
8.5,-1.411764705882353
8.502,-1.3529411764705883
8.504,-1.2352941176470589
8.506,-1.2352941176470589
8.508000000000001,-1.2352941176470589
8.51,-1.411764705882353
8.512,-1.6470588235294117
8.514,-1.588235294117647
8.516,-1.5294117647058822
8.518,-1.7058823529411764
8.52,-1.5294117647058822
8.522,-1.2941176470588236
8.524000000000001,-1.2941176470588236
8.526,-1.5294117647058822
8.528,-1.3529411764705883
8.53,-1.2941176470588236
8.532,-1.4705882352941178
8.534,-1.6470588235294117
8.536,-1.6470588235294117
8.538,-1.8823529411764706
8.540000000000001,-1.5294117647058822
8.542,-1.4705882352941178
8.544,-1.5294117647058822
8.546,-1.7647058823529411
8.548,-1.411764705882353
8.55,-1.7058823529411764
8.552,-1.8823529411764706
8.554,-2.0588235294117645
8.556000000000001,-1.8823529411764706
8.558,-2.2941176470588234
8.56,-2.176470588235294
8.562,-1.6470588235294117
8.564,-1.0588235294117647
8.566,-0.5294117647058824
8.568,0.11764705882352941
8.57,0.5882352941176471
8.572000000000001,0.8235294117647058
8.574,1.411764705882353
8.576,2.235294117647059
8.578,3.2941176470588234
8.58,4.588235294117647
8.582,5.9411764705882355
8.584,6.117647058823529
8.586,6.0
8.588000000000001,5.529411764705882
8.59,4.529411764705882
8.592,3.8823529411764706
8.594,2.9411764705882355
8.596,1.8235294117647058
8.598,0.7058823529411765
8.6,-0.7058823529411765
8.602,-1.588235294117647
8.604000000000001,-2.411764705882353
8.606,-2.588235294117647
8.608,-2.411764705882353
8.61,-2.4705882352941178
8.612,-2.2941176470588234
8.614,-1.9411764705882353
8.616,-1.7058823529411764
8.618,-1.5294117647058822
8.620000000000001,-1.5294117647058822
8.622,-1.2941176470588236
8.624,-1.0588235294117647
8.626,-1.1176470588235294
8.628,-1.2352941176470589
8.63,-1.3529411764705883
8.632,-1.3529411764705883
8.634,-1.3529411764705883
8.636000000000001,-1.3529411764705883
8.638,-1.2941176470588236
8.64,-1.2941176470588236
8.642,-0.9411764705882353
8.644,-1.411764705882353
8.646,-1.1764705882352942
8.648,-0.9411764705882353
8.65,-1.2941176470588236
8.652000000000001,-1.7058823529411764
8.654,-1.4705882352941178
8.656,-1.5294117647058822
8.658,-1.3529411764705883
8.66,-1.2941176470588236
8.662,-0.9411764705882353
8.664,-0.7647058823529411
8.666,-0.8235294117647058
8.668000000000001,-0.9411764705882353
8.67,-1.1176470588235294
8.672,-1.1764705882352942
8.674,-1.1176470588235294
8.676,-1.3529411764705883
8.678,-1.2941176470588236
8.68,-1.0
8.682,-1.0588235294117647
8.684000000000001,-0.7647058823529411
8.686,-0.47058823529411764
8.688,-0.7647058823529411
8.69,-0.5294117647058824
8.692,-0.9411764705882353
8.694,-0.7647058823529411
8.696,-1.1764705882352942
8.698,-1.2352941176470589
8.700000000000001,-1.1176470588235294
8.702,-0.9411764705882353
8.704,-0.8235294117647058
8.706,-0.7058823529411765
8.708,-0.9411764705882353
8.71,-0.9411764705882353
8.712,-0.8823529411764706
8.714,-0.6470588235294118
8.716,-1.1176470588235294
8.718,-0.8823529411764706
8.72,-0.6470588235294118
8.722,-0.4117647058823529
8.724,-0.35294117647058826
8.726,-0.35294117647058826
8.728,-0.4117647058823529
8.73,-0.5294117647058824
8.732,-0.47058823529411764
8.734,-0.5294117647058824
8.736,-0.5294117647058824
8.738,-0.5294117647058824
8.74,-0.4117647058823529
8.742,-0.17647058823529413
8.744,0.0
8.746,0.058823529411764705
8.748,0.0
8.75,-0.17647058823529413
8.752,-0.23529411764705882
8.754,-0.29411764705882354
8.756,-0.17647058823529413
8.758000000000001,0.0
8.76,-0.11764705882352941
8.762,0.23529411764705882
8.764,0.35294117647058826
8.766,0.5882352941176471
8.768,0.6470588235294118
8.77,0.5294117647058824
8.772,0.47058823529411764
8.774000000000001,0.35294117647058826
8.776,0.35294117647058826
8.778,0.4117647058823529
8.78,0.6470588235294118
8.782,0.7647058823529411
8.784,1.0
8.786,1.5294117647058822
8.788,1.1764705882352942
8.790000000000001,0.8823529411764706
8.792,1.0588235294117647
8.794,1.0588235294117647
8.796,1.1176470588235294
8.798,1.1176470588235294
8.8,1.2941176470588236
8.802,1.411764705882353
8.804,1.5294117647058822
8.806000000000001,1.7647058823529411
8.808,1.588235294117647
8.81,1.1764705882352942
8.812,1.1764705882352942
8.814,1.3529411764705883
8.816,1.1176470588235294
8.818,1.3529411764705883
8.82,1.4705882352941178
8.822000000000001,1.2941176470588236
8.824,1.4705882352941178
8.826,1.3529411764705883
8.828,1.2352941176470589
8.83,1.0588235294117647
8.832,1.0
8.834,0.8235294117647058
8.836,0.7058823529411765
8.838000000000001,0.7058823529411765
8.84,0.5882352941176471
8.842,1.1176470588235294
8.844,0.5294117647058824
8.846,0.47058823529411764
8.848,0.35294117647058826
8.85,-0.058823529411764705
8.852,-0.17647058823529413
8.854000000000001,-0.11764705882352941
8.856,-0.4117647058823529
8.858,-0.47058823529411764
8.86,-0.35294117647058826
8.862,-0.47058823529411764
8.864,-0.5882352941176471
8.866,-0.47058823529411764
8.868,-0.7058823529411765
8.870000000000001,-1.1764705882352942
8.872,-1.2352941176470589
8.874,-1.2352941176470589
8.876,-1.3529411764705883
8.878,-1.1176470588235294
8.88,-1.0588235294117647
8.882,-0.7647058823529411
8.884,-1.0
8.886000000000001,-1.0588235294117647
8.888,-1.3529411764705883
8.89,-1.588235294117647
8.892,-1.588235294117647
8.894,-1.3529411764705883
8.896,-1.4705882352941178
8.898,-1.4705882352941178
8.9,-1.411764705882353
8.902000000000001,-1.2941176470588236
8.904,-1.1176470588235294
8.906,-1.1764705882352942
8.908,-1.3529411764705883
8.91,-1.4705882352941178
8.912,-1.6470588235294117
8.914,-1.7058823529411764
8.916,-1.6470588235294117
8.918000000000001,-1.411764705882353
8.92,-1.3529411764705883
8.922,-1.2352941176470589
8.924,-1.2352941176470589
8.926,-1.1764705882352942
8.928,-1.3529411764705883
8.93,-1.411764705882353
8.932,-1.588235294117647
8.934000000000001,-1.6470588235294117
8.936,-1.6470588235294117
8.938,-1.4705882352941178
8.94,-1.2352941176470589
8.942,-1.2941176470588236
8.944,-1.1764705882352942
8.946,-1.2352941176470589
8.948,-1.1764705882352942
8.950000000000001,-1.2352941176470589
8.952,-1.2941176470588236
8.954,-1.4705882352941178
8.956,-1.6470588235294117
8.958,-1.4705882352941178
8.96,-1.3529411764705883
8.962,-1.588235294117647
8.964,-1.2352941176470589
8.966,-1.2941176470588236
8.968,-1.411764705882353
8.97,-1.4705882352941178
8.972,-1.4705882352941178
8.974,-1.4705882352941178
8.976,-1.411764705882353
8.978,-1.4705882352941178
8.98,-1.2941176470588236
8.982,-1.1176470588235294
8.984,-1.0588235294117647
8.986,-1.1176470588235294
8.988,-1.2352941176470589
8.99,-1.2941176470588236
8.992,-1.1764705882352942
8.994,-1.411764705882353
8.996,-1.5294117647058822
8.998,-1.4705882352941178
9.0,-1.2352941176470589
9.002,-1.2352941176470589
9.004,-1.1176470588235294
9.006,-1.2352941176470589
9.008000000000001,-1.2941176470588236
9.01,-1.1764705882352942
9.012,-1.5294117647058822
9.014,-1.588235294117647
9.016,-1.4705882352941178
9.018,-1.2941176470588236
9.02,-1.2941176470588236
9.022,-1.1176470588235294
9.024000000000001,-1.0588235294117647
9.026,-0.9411764705882353
9.028,-1.0
