Time,ECG
0.0,1.0
0.002,1.3353293413173652
0.004,1.778443113772455
0.006,1.6167664670658684
0.008,1.221556886227545
0.01,1.7005988023952097
0.012,2.0239520958083834
0.014,1.3652694610778444
0.016,1.281437125748503
0.018000000000000002,1.5029940119760479
0.02,1.4610778443113772
0.022,1.4910179640718564
0.024,1.311377245508982
0.026000000000000002,1.5688622754491017
0.028,2.0
0.03,1.8802395209580838
0.032,1.4610778443113772
0.034,1.4850299401197604
0.036000000000000004,1.4970059880239521
0.038,1.7425149700598803
0.04,2.0179640718562872
0.042,1.125748502994012
0.044,1.251497005988024
0.046,1.7604790419161678
0.048,1.9341317365269461
0.05,2.1377245508982035
0.052000000000000005,1.4790419161676647
0.054,1.5688622754491017
0.056,1.5089820359281436
0.058,1.7664670658682635
0.06,1.5688622754491017
0.062,1.8922155688622755
0.064,1.8802395209580838
0.066,1.562874251497006
0.068,1.8562874251497006
0.07,2.1736526946107784
0.07200000000000001,2.0179640718562872
0.074,2.0479041916167664
0.076,1.6706586826347305
0.078,1.718562874251497
0.08,1.8023952095808384
0.082,1.5089820359281436
0.084,1.7904191616766467
0.08600000000000001,1.7724550898203593
0.088,1.6766467065868262
0.09,1.5688622754491017
0.092,1.9820359281437125
0.094,2.029940119760479
0.096,1.8323353293413174
0.098,1.81437125748503
0.1,1.9520958083832336
0.10200000000000001,2.0179640718562872
0.10400000000000001,1.910179640718563
0.106,2.0838323353293413
0.108,1.8802395209580838
0.11,1.748502994011976
0.112,1.7604790419161678
0.114,1.7604790419161678
0.116,1.7005988023952097
0.11800000000000001,1.6826347305389222
0.12,2.1077844311377247
0.122,1.652694610778443
0.124,1.9520958083832336
0.126,2.2095808383233533
0.128,1.9520958083832336
0.13,1.4550898203592815
0.132,1.8802395209580838
0.134,2.2994011976047903
0.136,1.9520958083832336
0.138,1.9461077844311376
0.14,1.652694610778443
0.14200000000000002,1.5389221556886228
0.14400000000000002,2.0119760479041915
0.146,1.8323353293413174
0.148,1.6167664670658684
0.15,1.7425149700598803
0.152,2.065868263473054
0.154,1.844311377245509
0.156,1.9401197604790419
0.158,2.1197604790419162
0.16,2.4550898203592815
0.162,2.07185628742515
0.164,1.910179640718563
0.166,1.81437125748503
0.168,1.81437125748503
0.17,1.6826347305389222
0.17200000000000001,2.161676646706587
0.17400000000000002,2.053892215568862
0.176,2.0419161676646707
0.178,1.6047904191616766
0.18,1.9880239520958083
0.182,1.9880239520958083
0.184,2.3652694610778444
0.186,2.2994011976047903
0.188,2.1736526946107784
0.19,2.197604790419162
0.192,2.0419161676646707
0.194,2.07185628742515
0.196,2.1137724550898205
0.198,2.287425149700599
0.2,2.55688622754491
0.202,2.940119760479042
0.20400000000000001,2.934131736526946
0.20600000000000002,2.7664670658682633
0.20800000000000002,2.568862275449102
0.21,2.9820359281437128
0.212,3.317365269461078
0.214,3.413173652694611
0.216,3.125748502994012
0.218,2.8263473053892216
0.22,2.3832335329341316
0.222,1.4251497005988023
0.224,1.598802395209581
0.226,0.7365269461077845
0.228,0.6107784431137725
0.23,1.2395209580838322
0.232,1.251497005988024
0.234,1.407185628742515
0.23600000000000002,1.6467065868263473
0.23800000000000002,1.8502994011976048
0.24,1.0179640718562875
0.242,1.3652694610778444
0.244,1.8203592814371257
0.246,1.6107784431137724
0.248,1.6407185628742516
0.25,1.9461077844311376
0.252,2.065868263473054
0.254,1.7365269461077844
0.256,2.095808383233533
0.258,2.802395209580838
0.26,2.3592814371257487
0.262,1.904191616766467
0.264,2.413173652694611
0.266,2.2095808383233533
0.268,2.532934131736527
0.27,3.0059880239520957
0.272,2.6706586826347305
0.274,3.161676646706587
0.276,2.7724550898203595
0.278,2.8682634730538923
0.28,2.7425149700598803
0.28200000000000003,2.4550898203592815
0.28400000000000003,2.035928143712575
0.28600000000000003,2.2634730538922154
0.28800000000000003,2.5508982035928143
0.29,2.934131736526946
0.292,3.1017964071856285
0.294,3.059880239520958
0.296,2.910179640718563
0.298,2.502994011976048
0.3,2.8263473053892216
0.302,2.838323353293413
0.304,3.0479041916167664
0.306,2.7365269461077846
0.308,2.658682634730539
0.31,2.9760479041916166
0.312,2.5449101796407185
0.314,2.844311377245509
0.316,2.8862275449101795
0.318,3.0778443113772456
0.32,2.808383233532934
0.322,3.2994011976047903
0.324,3.095808383233533
0.326,2.2035928143712575
0.328,2.820359281437126
0.33,3.065868263473054
0.332,2.910179640718563
0.334,2.682634730538922
0.336,2.946107784431138
0.338,3.37125748502994
0.34,3.2934131736526946
0.342,2.9940119760479043
0.34400000000000003,3.1017964071856285
0.34600000000000003,2.9520958083832336
0.34800000000000003,2.6407185628742513
0.35000000000000003,2.8922155688622753
0.352,3.407185628742515
0.354,3.155688622754491
0.356,2.946107784431138
0.358,2.8502994011976046
0.36,3.07185628742515
0.362,3.155688622754491
0.364,2.9880239520958085
0.366,3.125748502994012
0.368,3.4550898203592815
0.37,3.604790419161677
0.372,3.2754491017964074
0.374,3.413173652694611
0.376,2.9520958083832336
0.378,3.191616766467066
0.38,2.7964071856287425
0.382,3.0239520958083834
0.384,3.1676646706586826
0.386,3.4550898203592815
0.388,3.5149700598802394
0.39,3.4730538922155687
0.392,3.5508982035928143
0.394,3.317365269461078
0.396,3.029940119760479
0.398,3.844311377245509
0.4,3.946107784431138
0.402,3.155688622754491
0.404,3.0479041916167664
0.406,3.4191616766467066
0.40800000000000003,3.3353293413173652
0.41000000000000003,3.6107784431137726
0.41200000000000003,3.7245508982035926
0.41400000000000003,3.197604790419162
0.41600000000000004,3.4550898203592815
0.418,3.5089820359281436
0.42,3.7065868263473054
0.422,3.568862275449102
0.424,3.4491017964071857
0.426,3.3532934131736525
0.428,3.6526946107784433
0.43,3.4550898203592815
0.432,2.8502994011976046
0.434,3.2035928143712575
0.436,2.9580838323353293
0.438,2.8862275449101795
0.44,2.970059880239521
0.442,3.089820359281437
0.444,3.44311377245509
0.446,3.4251497005988023
0.448,3.4191616766467066
0.45,2.8502994011976046
0.452,3.1736526946107784
0.454,3.431137724550898
0.456,2.946107784431138
0.458,2.784431137724551
0.46,2.7365269461077846
0.462,2.461077844311377
0.464,2.712574850299401
0.466,2.251497005988024
0.468,2.245508982035928
0.47000000000000003,2.9161676646706587
0.47200000000000003,3.6107784431137726
0.47400000000000003,3.4011976047904193
0.47600000000000003,3.161676646706587
0.47800000000000004,2.9940119760479043
0.48,2.437125748502994
0.482,2.9221556886227544
0.484,3.0778443113772456
0.486,2.4251497005988023
0.488,2.754491017964072
0.49,2.55688622754491
0.492,2.562874251497006
0.494,2.4550898203592815
0.496,2.604790419161677
0.498,2.8922155688622753
0.5,3.161676646706587
0.502,2.9820359281437128
0.504,2.7365269461077846
0.506,2.946107784431138
0.508,2.251497005988024
0.51,2.1736526946107784
0.512,2.461077844311377
0.514,2.8263473053892216
0.516,3.1377245508982035
0.518,3.0059880239520957
0.52,2.6467065868263475
0.522,2.7664670658682633
0.524,2.688622754491018
0.526,2.2035928143712575
0.528,1.910179640718563
0.53,2.191616766467066
0.532,2.748502994011976
0.534,3.1377245508982035
0.536,2.5269461077844313
0.538,2.6107784431137726
0.54,2.1317365269461077
0.542,2.7784431137724552
0.544,2.395209580838323
0.546,2.2095808383233533
0.548,2.2934131736526946
0.55,2.3353293413173652
0.552,2.4550898203592815
0.554,2.407185628742515
0.556,2.269461077844311
0.558,2.6107784431137726
0.56,2.502994011976048
0.562,2.4011976047904193
0.5640000000000001,2.4790419161676644
0.5660000000000001,2.856287425149701
0.5680000000000001,2.562874251497006
0.5700000000000001,1.904191616766467
0.5720000000000001,2.2215568862275448
0.5740000000000001,1.9221556886227544
0.5760000000000001,2.55688622754491
0.578,2.1377245508982035
0.58,2.62874251497006
0.582,2.622754491017964
0.584,2.2754491017964074
0.586,2.281437125748503
0.588,2.5209580838323356
0.59,2.269461077844311
0.592,1.5029940119760479
0.594,1.622754491017964
0.596,1.8682634730538923
0.598,2.1377245508982035
0.6,2.6407185628742513
0.602,2.622754491017964
0.604,2.1197604790419162
0.606,1.8982035928143712
0.608,2.1197604790419162
0.61,2.179640718562874
0.612,2.532934131736527
0.614,2.658682634730539
0.616,2.5748502994011977
0.618,1.9461077844311376
0.62,1.1437125748502994
0.622,1.7365269461077844
0.624,2.6347305389221556
0.626,1.622754491017964
0.628,1.904191616766467
0.63,2.161676646706587
0.632,2.2095808383233533
0.634,2.1676646706586826
0.636,1.910179640718563
0.638,2.1736526946107784
0.64,2.3592814371257487
0.642,1.718562874251497
0.644,2.035928143712575
0.646,1.7604790419161678
0.648,2.341317365269461
0.65,2.502994011976048
0.652,2.245508982035928
0.654,1.8502994011976048
0.656,1.784431137724551
0.658,2.191616766467066
0.66,1.9820359281437125
0.662,1.7305389221556886
0.664,1.2994011976047903
0.666,2.07185628742515
0.668,2.9760479041916166
0.67,3.1736526946107784
0.672,1.9820359281437125
0.674,1.221556886227545
0.676,1.7245508982035929
0.678,1.8862275449101797
0.68,1.8323353293413174
0.682,1.6287425149700598
0.684,2.191616766467066
0.686,2.269461077844311
0.6880000000000001,1.904191616766467
0.6900000000000001,1.8802395209580838
0.6920000000000001,1.778443113772455
0.6940000000000001,2.431137724550898
0.6960000000000001,2.2574850299401197
0.6980000000000001,1.7305389221556886
0.7000000000000001,1.6107784431137724
0.7020000000000001,2.4251497005988023
0.704,1.9880239520958083
0.706,1.6287425149700598
0.708,1.125748502994012
0.71,1.3712574850299402
0.712,1.8922155688622755
0.714,2.0479041916167664
0.716,1.9341317365269461
0.718,1.526946107784431
0.72,2.0778443113772456
0.722,2.18562874251497
0.724,1.5089820359281436
0.726,1.7305389221556886
0.728,1.4970059880239521
0.73,1.8083832335329342
0.732,2.179640718562874
0.734,2.089820359281437
0.736,2.3832335329341316
0.738,1.8383233532934131
0.74,1.8263473053892216
0.742,1.6766467065868262
0.744,1.8562874251497006
0.746,1.7425149700598803
0.748,1.9820359281437125
0.75,1.7664670658682635
0.752,1.3652694610778444
0.754,1.8682634730538923
0.756,2.059880239520958
0.758,2.1736526946107784
0.76,1.7904191616766467
0.762,2.245508982035928
0.764,1.8083832335329342
0.766,2.095808383233533
0.768,1.8263473053892216
0.77,1.5449101796407185
0.772,1.5568862275449102
0.774,1.8383233532934131
0.776,1.7005988023952097
0.778,1.598802395209581
0.78,1.8383233532934131
0.782,2.3233532934131738
0.784,2.2634730538922154
0.786,1.688622754491018
0.788,2.1497005988023954
0.79,2.688622754491018
0.792,1.688622754491018
0.794,1.0718562874251496
0.796,2.197604790419162
0.798,2.5748502994011977
0.8,2.8802395209580838
0.802,2.712574850299401
0.804,2.6107784431137726
0.806,2.44311377245509
0.808,2.9520958083832336
0.81,2.2754491017964074
0.812,2.1197604790419162
0.8140000000000001,2.718562874251497
0.8160000000000001,2.281437125748503
0.8180000000000001,1.81437125748503
0.8200000000000001,1.784431137724551
0.8220000000000001,0.8862275449101796
0.8240000000000001,1.0479041916167664
0.8260000000000001,0.6167664670658682
0.8280000000000001,0.2694610778443114
0.8300000000000001,0.6706586826347305
0.8320000000000001,0.5868263473053892
0.834,0.25149700598802394
0.836,0.30538922155688625
0.838,0.23952095808383234
0.84,0.7544910179640718
0.842,1.3293413173652695
0.844,1.7425149700598803
0.846,1.035928143712575
0.848,1.3532934131736527
0.85,0.8922155688622755
0.852,1.473053892215569
0.854,1.964071856287425
0.856,1.8862275449101797
0.858,1.3952095808383234
0.86,1.592814371257485
0.862,1.6287425149700598
0.864,2.065868263473054
0.866,1.437125748502994
0.868,1.8203592814371257
0.87,1.844311377245509
0.872,1.3832335329341316
0.874,1.598802395209581
0.876,2.179640718562874
0.878,1.6646706586826348
0.88,1.592814371257485
0.882,2.2574850299401197
0.884,2.437125748502994
0.886,2.4550898203592815
0.888,1.9520958083832336
0.89,1.7904191616766467
0.892,2.4011976047904193
0.894,1.1676646706586826
0.896,1.3712574850299402
0.898,1.7425149700598803
0.9,2.269461077844311
0.902,1.7005988023952097
0.904,1.748502994011976
0.906,2.37125748502994
0.908,2.754491017964072
0.91,2.946107784431138
0.912,1.784431137724551
0.914,1.4970059880239521
0.916,1.6107784431137724
0.918,1.532934131736527
0.92,2.2275449101796405
0.922,2.3233532934131738
0.924,1.8203592814371257
0.926,1.844311377245509
0.928,1.8862275449101797
0.93,2.0778443113772456
0.932,1.8203592814371257
0.934,1.7964071856287425
0.936,2.1736526946107784
0.9380000000000001,2.754491017964072
0.9400000000000001,2.4730538922155687
0.9420000000000001,1.598802395209581
0.9440000000000001,1.2275449101796407
0.9460000000000001,1.3532934131736527
0.9480000000000001,1.8622754491017963
0.9500000000000001,1.2874251497005988
0.9520000000000001,2.4850299401197606
0.9540000000000001,2.55688622754491
0.9560000000000001,2.413173652694611
0.9580000000000001,2.3832335329341316
0.96,2.808383233532934
0.962,2.413173652694611
0.964,2.1736526946107784
0.966,1.8383233532934131
0.968,1.5389221556886228
0.97,1.778443113772455
0.972,1.7245508982035929
0.974,2.407185628742515
0.976,2.407185628742515
0.978,2.4550898203592815
0.98,2.694610778443114
0.982,2.1497005988023954
0.984,2.3592814371257487
0.986,2.3473053892215567
0.988,2.9760479041916166
0.99,2.1197604790419162
0.992,1.3173652694610778
0.994,2.808383233532934
0.996,2.5209580838323356
0.998,1.9580838323353293
1.0,1.7964071856287425
1.002,2.2095808383233533
1.004,3.0419161676646707
1.006,2.568862275449102
1.008,2.5748502994011977
1.01,2.2215568862275448
1.012,2.568862275449102
1.014,1.970059880239521
1.016,2.3832335329341316
1.018,2.3353293413173652
1.02,2.6467065868263475
1.022,2.3233532934131738
1.024,2.9161676646706587
1.026,2.4251497005988023
1.028,2.2395209580838324
1.03,2.3233532934131738
1.032,1.8383233532934131
1.034,2.4251497005988023
1.036,2.059880239520958
1.038,2.4011976047904193
1.04,2.0179640718562872
1.042,1.81437125748503
1.044,1.9341317365269461
1.046,1.964071856287425
1.048,1.6107784431137724
1.05,2.5089820359281436
1.052,2.2275449101796405
1.054,1.7604790419161678
1.056,1.904191616766467
1.058,2.0059880239520957
1.06,2.2275449101796405
1.062,1.9341317365269461
1.064,1.5089820359281436
1.066,1.0658682634730539
1.068,2.4850299401197606
1.07,2.07185628742515
1.072,1.6107784431137724
1.074,2.3652694610778444
1.076,1.9520958083832336
1.078,1.5568862275449102
1.08,1.5748502994011977
1.082,2.053892215568862
1.084,2.1676646706586826
1.086,1.4610778443113772
1.088,1.4491017964071857
1.09,1.7365269461077844
1.092,1.844311377245509
1.094,1.9161676646706587
1.096,1.2275449101796407
1.098,1.18562874251497
1.1,2.215568862275449
1.102,1.5808383233532934
1.104,1.9580838323353293
1.106,1.8682634730538923
1.108,1.1077844311377245
1.11,1.4610778443113772
1.112,1.5389221556886228
1.114,1.473053892215569
1.116,1.5508982035928143
1.118,1.3652694610778444
1.12,2.0419161676646707
1.122,1.9520958083832336
1.124,1.3892215568862276
1.1260000000000001,1.3952095808383234
1.1280000000000001,1.4491017964071857
1.1300000000000001,2.3473053892215567
1.1320000000000001,2.0239520958083834
1.1340000000000001,1.5508982035928143
1.1360000000000001,1.6407185628742516
1.1380000000000001,1.407185628742515
1.1400000000000001,1.598802395209581
1.1420000000000001,1.5568862275449102
1.1440000000000001,2.191616766467066
1.1460000000000001,1.8323353293413174
1.1480000000000001,1.401197604790419
1.1500000000000001,1.8323353293413174
1.1520000000000001,1.0838323353293413
1.154,1.5868263473053892
1.156,1.592814371257485
1.158,1.2934131736526946
1.16,1.9341317365269461
1.162,2.1317365269461077
1.164,1.7305389221556886
1.166,1.8323353293413174
1.168,1.6407185628742516
1.17,1.2574850299401197
1.172,1.778443113772455
1.174,1.6407185628742516
1.176,1.748502994011976
1.178,1.9161676646706587
1.18,1.7365269461077844
1.182,2.1077844311377247
1.184,1.7964071856287425
1.186,1.8083832335329342
1.188,0.7964071856287425
1.19,1.4251497005988023
1.192,1.281437125748503
1.194,2.125748502994012
1.196,1.9820359281437125
1.198,1.688622754491018
1.2,1.6467065868263473
1.202,1.532934131736527
1.204,1.437125748502994
1.206,1.9161676646706587
1.208,1.467065868263473
1.21,1.532934131736527
1.212,2.053892215568862
1.214,2.5149700598802394
1.216,1.401197604790419
1.218,0.8622754491017964
1.22,1.6826347305389222
1.222,2.0059880239520957
1.224,1.3712574850299402
1.226,0.9700598802395209
1.228,2.3532934131736525
1.23,2.461077844311377
1.232,1.7065868263473054
1.234,1.5808383233532934
1.236,1.4970059880239521
1.238,1.3592814371257484
1.24,1.5449101796407185
1.242,1.4191616766467066
1.244,1.6107784431137724
1.246,1.8263473053892216
1.248,1.8862275449101797
1.25,1.964071856287425
1.252,1.8383233532934131
1.254,1.4850299401197604
1.256,1.592814371257485
1.258,1.844311377245509
1.26,2.1377245508982035
1.262,1.5568862275449102
1.264,0.7245508982035929
1.266,1.4251497005988023
1.268,2.3892215568862274
1.27,2.0
1.272,1.9580838323353293
1.274,2.191616766467066
1.276,1.7125748502994012
1.278,0.9461077844311377
1.28,1.9401197604790419
1.282,2.2095808383233533
1.284,0.3772455089820359
1.286,0.9401197604790419
1.288,1.6706586826347305
1.29,2.437125748502994
1.292,1.8922155688622755
1.294,1.3353293413173652
1.296,1.7604790419161678
1.298,1.347305389221557
1.3,1.9341317365269461
1.302,1.622754491017964
1.304,0.9700598802395209
1.306,2.2395209580838324
1.308,1.562874251497006
1.31,1.095808383233533
1.312,1.4850299401197604
1.314,1.8383233532934131
1.316,1.688622754491018
1.318,2.1497005988023954
1.32,1.6407185628742516
1.322,2.0419161676646707
1.324,1.401197604790419
1.326,1.7245508982035929
1.328,1.341317365269461
1.33,1.281437125748503
1.332,1.8622754491017963
1.334,2.1137724550898205
1.336,1.526946107784431
1.338,1.0239520958083832
1.34,1.2455089820359282
1.342,1.311377245508982
1.344,1.9461077844311376
1.346,1.2754491017964071
1.348,2.0778443113772456
1.35,2.1077844311377247
1.352,1.622754491017964
1.354,1.6646706586826348
1.356,1.251497005988024
1.358,1.9760479041916168
1.36,1.9401197604790419
1.362,1.2934131736526946
1.364,1.8023952095808384
1.366,1.8922155688622755
1.368,1.526946107784431
1.37,1.377245508982036
1.372,1.7245508982035929
1.374,2.5209580838323356
1.3760000000000001,1.3053892215568863
1.3780000000000001,1.035928143712575
1.3800000000000001,2.089820359281437
1.3820000000000001,1.5209580838323353
1.3840000000000001,1.5568862275449102
1.3860000000000001,1.904191616766467
1.3880000000000001,1.3652694610778444
1.3900000000000001,1.8263473053892216
1.3920000000000001,1.7305389221556886
1.3940000000000001,1.904191616766467
1.3960000000000001,1.8203592814371257
1.3980000000000001,2.3293413173652695
1.4000000000000001,2.197604790419162
1.4020000000000001,1.9940119760479043
1.4040000000000001,2.407185628742515
1.4060000000000001,2.4491017964071857
1.408,2.6467065868263475
1.41,2.8502994011976046
1.412,2.748502994011976
1.414,2.748502994011976
1.416,2.1317365269461077
1.418,1.6047904191616766
1.42,0.7544910179640718
1.422,0.5209580838323353
1.424,1.1077844311377245
1.426,0.5209580838323353
1.428,-0.2934131736526946
1.43,-0.19161676646706588
1.432,0.7065868263473054
1.434,0.8143712574850299
1.436,-0.03592814371257485
1.438,0.40119760479041916
1.44,0.8502994011976048
1.442,0.7005988023952096
1.444,-0.011976047904191617
1.446,-0.1497005988023952
1.448,1.2874251497005988
1.45,1.2035928143712575
1.452,1.251497005988024
1.454,1.0658682634730539
1.456,1.658682634730539
1.458,1.6347305389221556
1.46,1.5449101796407185
1.462,1.5688622754491017
1.464,1.7604790419161678
1.466,1.844311377245509
1.468,1.0
1.47,1.5209580838323353
1.472,1.6706586826347305
1.474,1.8622754491017963
1.476,1.7365269461077844
1.478,1.8203592814371257
1.48,1.7245508982035929
1.482,1.6946107784431137
1.484,1.7425149700598803
1.486,1.6047904191616766
1.488,1.6347305389221556
1.49,1.7664670658682635
1.492,1.6047904191616766
1.494,2.1377245508982035
1.496,2.2335329341317367
1.498,1.7065868263473054
1.5,1.401197604790419
1.502,1.1197604790419162
1.504,2.029940119760479
1.506,2.437125748502994
1.508,1.844311377245509
1.51,1.1796407185628743
1.512,1.1676646706586826
1.514,2.1317365269461077
1.516,2.251497005988024
1.518,1.7604790419161678
1.52,1.6347305389221556
1.522,1.7125748502994012
1.524,1.7544910179640718
1.526,1.7724550898203593
1.528,1.7544910179640718
1.53,1.784431137724551
1.532,1.5808383233532934
1.534,1.7425149700598803
1.536,1.7904191616766467
1.538,1.6047904191616766
1.54,1.6946107784431137
1.542,2.3532934131736525
1.544,1.7245508982035929
1.546,2.155688622754491
1.548,2.3532934131736525
1.55,1.9281437125748504
1.552,1.7544910179640718
1.554,1.81437125748503
1.556,2.1317365269461077
1.558,2.1017964071856285
1.56,1.8862275449101797
1.562,1.7125748502994012
1.564,2.1377245508982035
1.566,2.1497005988023954
1.568,1.7604790419161678
1.57,2.161676646706587
1.572,1.7724550898203593
1.574,1.4610778443113772
1.576,1.3832335329341316
1.578,2.4251497005988023
1.58,2.5269461077844313
1.582,2.532934131736527
1.584,2.3892215568862274
1.586,2.281437125748503
1.588,2.287425149700599
1.59,1.9520958083832336
1.592,2.1736526946107784
1.594,2.215568862275449
1.596,2.287425149700599
1.598,2.2934131736526946
1.6,2.2335329341317367
1.602,2.281437125748503
1.604,2.407185628742515
1.606,2.2275449101796405
1.608,1.7544910179640718
1.61,2.2335329341317367
1.612,2.461077844311377
1.614,2.3652694610778444
1.616,2.4550898203592815
1.618,2.2754491017964074
1.62,2.2934131736526946
1.622,2.197604790419162
1.624,2.191616766467066
1.6260000000000001,2.0059880239520957
1.6280000000000001,2.1017964071856285
1.6300000000000001,2.1497005988023954
1.6320000000000001,2.143712574850299
1.6340000000000001,1.9820359281437125
1.6360000000000001,1.473053892215569
1.6380000000000001,1.8922155688622755
1.6400000000000001,2.1077844311377247
1.6420000000000001,1.8502994011976048
1.6440000000000001,1.5688622754491017
1.6460000000000001,1.377245508982036
1.6480000000000001,1.592814371257485
1.6500000000000001,1.377245508982036
1.6520000000000001,1.562874251497006
1.6540000000000001,1.5568862275449102
1.6560000000000001,1.4431137724550898
1.6580000000000001,1.6107784431137724
1.6600000000000001,1.964071856287425
1.6620000000000001,1.6407185628742516
1.6640000000000001,1.1137724550898203
1.666,1.1437125748502994
1.668,1.4311377245508983
1.67,1.125748502994012
1.672,0.8323353293413174
1.674,1.1377245508982037
1.676,1.3592814371257484
1.678,0.6586826347305389
1.68,0.8203592814371258
1.682,1.2035928143712575
1.684,1.7125748502994012
1.686,1.3952095808383234
1.688,0.844311377245509
1.69,0.7305389221556886
1.692,0.9041916167664671
1.694,0.8083832335329342
1.696,0.9101796407185628
1.698,1.0598802395209581
1.7,0.9221556886227545
1.702,0.8383233532934131
1.704,0.7604790419161677
1.706,0.7065868263473054
1.708,0.9580838323353293
1.71,0.844311377245509
1.712,0.8083832335329342
1.714,0.7305389221556886
1.716,0.7544910179640718
1.718,0.8263473053892215
1.72,0.6047904191616766
1.722,0.49700598802395207
1.724,0.5988023952095808
1.726,0.7125748502994012
1.728,0.7305389221556886
1.73,0.9341317365269461
1.732,0.8862275449101796
1.734,0.5449101796407185
1.736,0.7964071856287425
1.738,1.347305389221557
1.74,1.029940119760479
1.742,0.11976047904191617
1.744,0.25149700598802394
1.746,0.20359281437125748
1.748,0.5688622754491018
1.75,0.6467065868263473
1.752,0.9401197604790419
1.754,0.5449101796407185
1.756,0.2215568862275449
1.758,0.2275449101796407
1.76,0.38323353293413176
1.762,0.5149700598802395
1.764,0.3592814371257485
1.766,0.31137724550898205
1.768,0.10778443113772455
1.77,0.41317365269461076
1.772,0.5269461077844312
1.774,0.19760479041916168
1.776,0.2694610778443114
1.778,0.47305389221556887
1.78,0.4431137724550898
1.782,0.562874251497006
1.784,0.3652694610778443
1.786,0.20958083832335328
1.788,0.2754491017964072
1.79,0.5089820359281437
1.792,0.3413173652694611
1.794,0.25149700598802394
1.796,0.1437125748502994
1.798,0.059880239520958084
1.8,0.10778443113772455
1.802,0.2874251497005988
1.804,0.718562874251497
1.806,0.5089820359281437
1.808,0.8323353293413174
1.81,0.46107784431137727
1.812,0.2694610778443114
1.814,0.0718562874251497
1.816,0.38922155688622756
1.818,0.23353293413173654
1.82,0.05389221556886228
1.822,0.15568862275449102
1.824,0.32934131736526945
1.826,0.23353293413173654
1.828,0.0658682634730539
1.83,-0.41317365269461076
1.832,0.11377245508982035
1.834,0.7844311377245509
1.836,0.437125748502994
1.838,0.2754491017964072
1.84,0.0718562874251497
1.842,-0.09580838323353294
1.844,0.25149700598802394
1.846,0.437125748502994
1.848,0.1317365269461078
1.85,0.19161676646706588
1.852,0.16766467065868262
1.854,0.17964071856287425
1.856,0.0
1.858,0.19161676646706588
1.86,0.2874251497005988
1.862,0.2215568862275449
1.864,-0.23353293413173654
1.866,-0.2155688622754491
1.868,0.09580838323353294
1.87,0.4311377245508982
1.872,0.6107784431137725
1.874,-0.005988023952095809
1.8760000000000001,0.005988023952095809
1.8780000000000001,0.05389221556886228
1.8800000000000001,-0.16167664670658682
1.8820000000000001,-0.08982035928143713
1.8840000000000001,0.11976047904191617
1.8860000000000001,0.04790419161676647
1.8880000000000001,0.04790419161676647
1.8900000000000001,-0.2874251497005988
1.8920000000000001,-0.2215568862275449
1.8940000000000001,0.25748502994011974
1.8960000000000001,-0.1317365269461078
1.8980000000000001,0.11976047904191617
1.9000000000000001,0.10179640718562874
1.9020000000000001,-0.11976047904191617
1.9040000000000001,0.0718562874251497
1.9060000000000001,0.005988023952095809
1.9080000000000001,-0.16766467065868262
1.9100000000000001,-0.11976047904191617
1.9120000000000001,-0.0718562874251497
1.9140000000000001,-0.24550898203592814
1.9160000000000001,-0.11377245508982035
1.9180000000000001,-0.16167664670658682
1.92,0.25748502994011974
1.922,-0.24550898203592814
1.924,-0.5209580838323353
1.926,-0.08383233532934131
1.928,0.059880239520958084
1.93,0.24550898203592814
1.932,-0.20958083832335328
1.934,0.08383233532934131
1.936,0.41317365269461076
1.938,0.05389221556886228
1.94,-0.5209580838323353
1.942,-0.3413173652694611
1.944,-0.18562874251497005
1.946,-0.1497005988023952
1.948,-0.31736526946107785
1.95,-0.10778443113772455
1.952,-0.059880239520958084
1.954,-0.1377245508982036
1.956,0.11377245508982035
1.958,-0.0718562874251497
1.96,-0.2275449101796407
1.962,-0.09580838323353294
1.964,-0.562874251497006
1.966,-0.1497005988023952
1.968,0.017964071856287425
1.97,-0.0658682634730539
1.972,0.23353293413173654
1.974,-0.7724550898203593
1.976,-0.31137724550898205
1.978,0.2874251497005988
1.98,-0.011976047904191617
1.982,-0.0658682634730539
1.984,0.6586826347305389
1.986,0.4251497005988024
1.988,0.1377245508982036
1.99,-0.09580838323353294
1.992,0.5149700598802395
1.994,0.41317365269461076
1.996,0.32335329341317365
1.998,1.0538922155688624
2.0,0.6407185628742516
2.0020000000000002,0.15568862275449102
2.004,-0.09580838323353294
2.0060000000000002,0.25748502994011974
2.008,-0.19760479041916168
2.0100000000000002,-0.7664670658682635
2.012,-1.1497005988023952
2.0140000000000002,-1.1077844311377245
2.016,-1.251497005988024
2.0180000000000002,-1.5808383233532934
2.02,-1.1437125748502994
2.0220000000000002,-1.2634730538922156
2.024,-1.4191616766467066
2.0260000000000002,-1.6766467065868262
2.028,-1.658682634730539
2.0300000000000002,-1.3233532934131738
2.032,-1.251497005988024
2.0340000000000003,-1.2395209580838322
2.036,-1.1017964071856288
2.0380000000000003,-0.6526946107784432
2.04,-0.7964071856287425
2.0420000000000003,-1.0
2.044,-0.718562874251497
2.0460000000000003,-0.39520958083832336
2.048,-0.281437125748503
2.05,-0.38323353293413176
2.052,-0.10179640718562874
2.054,-0.09580838323353294
2.056,-0.16167664670658682
2.058,-0.32934131736526945
2.06,-0.1377245508982036
2.062,-0.38922155688622756
2.064,-0.2694610778443114
2.066,0.3473053892215569
2.068,0.2275449101796407
2.07,0.15568862275449102
2.072,0.03592814371257485
2.074,0.1377245508982036
2.076,0.24550898203592814
2.078,-0.059880239520958084
2.08,-0.041916167664670656
2.082,0.16766467065868262
2.084,-0.10179640718562874
2.086,0.10179640718562874
2.088,0.1377245508982036
2.09,0.16766467065868262
2.092,-0.08383233532934131
2.094,0.18562874251497005
2.096,0.09580838323353294
2.098,-0.19760479041916168
2.1,-0.11377245508982035
2.102,0.017964071856287425
2.104,0.0718562874251497
2.106,0.11976047904191617
2.108,0.05389221556886228
2.11,0.0658682634730539
2.112,0.2275449101796407
2.114,-0.1317365269461078
2.116,0.04790419161676647
2.118,0.15568862275449102
2.12,0.059880239520958084
2.122,0.17964071856287425
2.124,0.23353293413173654
2.126,-0.029940119760479042
2.128,0.08383233532934131
2.13,0.2694610778443114
2.132,0.281437125748503
2.134,0.15568862275449102
2.136,0.31137724550898205
2.138,0.38922155688622756
2.14,0.3652694610778443
2.142,0.2634730538922156
2.144,0.2155688622754491
2.146,0.25748502994011974
2.148,0.3532934131736527
2.15,0.3772455089820359
2.152,0.39520958083832336
2.154,0.3772455089820359
2.156,0.3652694610778443
2.158,0.40119760479041916
2.16,0.5209580838323353
2.162,0.5568862275449101
2.164,0.5029940119760479
2.166,0.5149700598802395
2.168,0.592814371257485
2.17,0.592814371257485
2.172,0.6826347305389222
2.174,0.7245508982035929
2.176,0.7485029940119761
2.178,0.8023952095808383
2.18,0.6347305389221557
2.182,0.7305389221556886
2.184,0.8023952095808383
2.186,0.7305389221556886
2.188,0.6167664670658682
2.19,0.6347305389221557
2.192,0.7245508982035929
2.194,0.7245508982035929
2.196,0.6826347305389222
2.198,0.6646706586826348
2.2,0.6047904191616766
2.202,0.5329341317365269
2.204,0.5029940119760479
2.206,0.3532934131736527
2.208,0.40718562874251496
2.21,0.4251497005988024
2.212,0.3473053892215569
2.214,0.25149700598802394
2.216,0.23353293413173654
2.218,0.15568862275449102
2.22,-0.005988023952095809
2.222,-0.04790419161676647
2.224,-0.12574850299401197
2.226,-0.12574850299401197
2.228,-0.2634730538922156
2.23,-0.3413173652694611
2.232,-0.4311377245508982
2.234,-0.5149700598802395
2.236,-0.6047904191616766
2.238,-0.6706586826347305
2.24,-0.718562874251497
2.242,-0.844311377245509
2.244,-0.8982035928143712
2.246,-0.9760479041916168
2.248,-0.9820359281437125
2.25,-1.0658682634730539
2.2520000000000002,-1.1137724550898203
2.254,-1.1437125748502994
2.2560000000000002,-1.221556886227545
2.258,-1.3053892215568863
2.2600000000000002,-1.3592814371257484
2.262,-1.4491017964071857
2.2640000000000002,-1.4491017964071857
2.266,-1.4790419161676647
2.2680000000000002,-1.5748502994011977
2.27,-1.6706586826347305
2.2720000000000002,-1.6946107784431137
2.274,-1.7065868263473054
2.2760000000000002,-1.784431137724551
2.278,-1.8023952095808384
2.2800000000000002,-1.8922155688622755
2.282,-1.9221556886227544
2.2840000000000003,-1.9281437125748504
2.286,-2.0179640718562872
2.2880000000000003,-1.9760479041916168
2.29,-1.964071856287425
2.2920000000000003,-1.964071856287425
2.294,-1.9161676646706587
2.2960000000000003,-1.9760479041916168
2.298,-1.9221556886227544
2.3000000000000003,-2.0
2.302,-1.9940119760479043
2.3040000000000003,-1.9820359281437125
2.306,-1.9940119760479043
2.308,-2.0479041916167664
2.31,-2.065868263473054
2.312,-2.095808383233533
2.314,-2.1317365269461077
2.316,-2.143712574850299
2.318,-2.161676646706587
2.32,-2.197604790419162
2.322,-2.245508982035928
2.324,-2.1736526946107784
2.326,-2.2275449101796405
2.328,-2.2634730538922154
2.33,-2.287425149700599
2.332,-2.2215568862275448
2.334,-2.245508982035928
2.336,-2.2934131736526946
2.338,-2.269461077844311
2.34,-2.2335329341317367
2.342,-2.251497005988024
2.344,-2.2095808383233533
2.346,-2.197604790419162
2.348,-2.269461077844311
2.35,-2.269461077844311
2.352,-2.2574850299401197
2.354,-2.2994011976047903
2.356,-2.3592814371257487
2.358,-2.3832335329341316
2.36,-2.3892215568862274
2.362,-2.3353293413173652
2.364,-2.3233532934131738
2.366,-2.2754491017964074
2.368,-2.287425149700599
2.37,-2.3233532934131738
2.372,-2.18562874251497
2.374,-2.1317365269461077
2.376,-2.0778443113772456
2.378,-2.0838323353293413
2.38,-2.065868263473054
2.382,-2.0
2.384,-2.0179640718562872
2.386,-2.0239520958083834
2.388,-1.9580838323353293
2.39,-2.0119760479041915
2.392,-1.970059880239521
2.394,-1.9461077844311376
2.396,-1.9221556886227544
2.398,-1.874251497005988
2.4,-1.910179640718563
2.402,-1.9520958083832336
2.404,-1.9461077844311376
2.406,-1.8922155688622755
2.408,-1.8502994011976048
2.41,-1.8622754491017963
2.412,-1.8622754491017963
2.414,-1.8682634730538923
2.416,-1.904191616766467
2.418,-1.784431137724551
2.42,-1.7724550898203593
2.422,-1.9161676646706587
2.424,-1.7904191616766467
2.426,-1.7964071856287425
2.428,-1.904191616766467
2.43,-1.8323353293413174
2.432,-1.8203592814371257
2.434,-1.718562874251497
2.436,-1.7425149700598803
2.438,-1.718562874251497
2.44,-1.7664670658682635
2.442,-1.6946107784431137
2.444,-1.7005988023952097
2.446,-1.688622754491018
2.448,-1.6407185628742516
2.45,-1.652694610778443
2.452,-1.6766467065868262
2.454,-1.6706586826347305
2.456,-1.6946107784431137
2.458,-1.7305389221556886
2.46,-1.7125748502994012
2.462,-1.7005988023952097
2.464,-1.7544910179640718
2.466,-1.7604790419161678
2.468,-1.7664670658682635
2.47,-1.7544910179640718
2.472,-1.6826347305389222
2.474,-1.7005988023952097
2.476,-1.7604790419161678
2.478,-1.7724550898203593
2.48,-1.7065868263473054
2.482,-1.562874251497006
2.484,-1.6467065868263473
2.486,-1.8083832335329342
2.488,-1.748502994011976
2.49,-1.7305389221556886
2.492,-1.7125748502994012
2.494,-1.6766467065868262
2.496,-1.6706586826347305
2.498,-1.688622754491018
2.5,-1.748502994011976
2.5020000000000002,-1.688622754491018
2.504,-1.7365269461077844
2.5060000000000002,-1.7125748502994012
2.508,-1.7604790419161678
2.5100000000000002,-1.7005988023952097
2.512,-1.6946107784431137
2.5140000000000002,-1.6646706586826348
2.516,-1.688622754491018
2.5180000000000002,-1.7305389221556886
2.52,-1.7664670658682635
2.5220000000000002,-1.7065868263473054
2.524,-1.718562874251497
2.5260000000000002,-1.748502994011976
2.528,-1.652694610778443
2.5300000000000002,-1.6407185628742516
2.532,-1.598802395209581
2.5340000000000003,-1.6287425149700598
2.536,-1.6287425149700598
2.5380000000000003,-1.6047904191616766
2.54,-1.5748502994011977
2.5420000000000003,-1.6826347305389222
2.544,-1.7125748502994012
2.5460000000000003,-1.7065868263473054
2.548,-1.6946107784431137
2.5500000000000003,-1.6946107784431137
2.552,-1.658682634730539
2.5540000000000003,-1.5508982035928143
2.556,-1.5688622754491017
2.5580000000000003,-1.5389221556886228
2.56,-1.5149700598802396
2.562,-1.4491017964071857
2.564,-1.347305389221557
2.566,-1.215568862275449
2.568,-1.1437125748502994
2.57,-1.029940119760479
2.572,-0.9520958083832335
2.574,-0.9041916167664671
2.576,-0.8862275449101796
2.578,-0.874251497005988
2.58,-0.8982035928143712
2.582,-1.2095808383233533
2.584,-1.8562874251497006
2.586,-2.4251497005988023
2.588,-2.688622754491018
2.59,-2.8982035928143715
2.592,-2.9760479041916166
2.594,-2.9580838323353293
2.596,-2.9520958083832336
2.598,-3.0
2.6,-2.9760479041916166
2.602,-2.9520958083832336
2.604,-2.81437125748503
2.606,-2.7065868263473054
2.608,-2.6467065868263475
2.61,-2.586826347305389
2.612,-2.4730538922155687
2.614,-2.377245508982036
2.616,-2.311377245508982
2.618,-2.251497005988024
2.62,-2.125748502994012
2.622,-2.0
2.624,-2.0119760479041915
2.626,-1.970059880239521
2.628,-1.9281437125748504
2.63,-1.844311377245509
2.632,-1.7425149700598803
2.634,-1.7125748502994012
2.636,-1.6826347305389222
2.638,-1.6946107784431137
2.64,-1.658682634730539
2.642,-1.6467065868263473
2.644,-1.6347305389221556
2.646,-1.658682634730539
2.648,-1.6167664670658684
2.65,-1.6167664670658684
2.652,-1.6826347305389222
2.654,-1.598802395209581
2.656,-1.6287425149700598
2.658,-1.5808383233532934
2.66,-1.5868263473053892
2.662,-1.5868263473053892
2.664,-1.526946107784431
2.666,-1.5089820359281436
2.668,-1.6347305389221556
2.67,-1.5568862275449102
2.672,-1.5688622754491017
2.674,-1.5688622754491017
2.676,-1.5209580838323353
2.678,-1.5209580838323353
2.68,-1.4850299401197604
2.682,-1.5149700598802396
2.684,-1.4850299401197604
2.686,-1.5568862275449102
2.688,-1.5449101796407185
2.69,-1.5568862275449102
2.692,-1.467065868263473
2.694,-1.5149700598802396
2.696,-1.5808383233532934
2.698,-1.467065868263473
2.7,-1.4550898203592815
2.702,-1.467065868263473
2.704,-1.4550898203592815
2.706,-1.473053892215569
2.708,-1.4550898203592815
2.71,-1.4191616766467066
2.712,-1.401197604790419
2.714,-1.401197604790419
2.716,-1.4550898203592815
2.718,-1.3712574850299402
2.72,-1.3652694610778444
2.722,-1.3652694610778444
2.724,-1.3832335329341316
2.726,-1.3173652694610778
2.728,-1.347305389221557
2.73,-1.3712574850299402
2.732,-1.377245508982036
2.734,-1.281437125748503
2.736,-1.2694610778443114
2.738,-1.221556886227545
2.74,-1.2574850299401197
2.742,-1.18562874251497
2.744,-1.1916167664670658
2.746,-1.2694610778443114
2.748,-1.2095808383233533
2.75,-1.1796407185628743
2.7520000000000002,-1.1437125748502994
2.754,-1.1497005988023952
2.7560000000000002,-1.1497005988023952
2.758,-1.125748502994012
2.7600000000000002,-1.0658682634730539
2.762,-1.1077844311377245
2.7640000000000002,-1.1736526946107784
2.766,-1.1497005988023952
2.7680000000000002,-1.0598802395209581
2.77,-1.0239520958083832
2.7720000000000002,-1.089820359281437
2.774,-1.0598802395209581
2.7760000000000002,-1.0838323353293413
2.778,-1.0479041916167664
2.7800000000000002,-0.9341317365269461
2.782,-0.9221556886227545
2.7840000000000003,-0.9580838323353293
2.786,-0.9461077844311377
2.7880000000000003,-0.9580838323353293
2.79,-0.9161676646706587
2.7920000000000003,-0.9520958083832335
2.794,-1.0479041916167664
2.7960000000000003,-1.1017964071856288
2.798,-1.1197604790419162
2.8000000000000003,-1.0778443113772456
2.802,-1.0658682634730539
2.8040000000000003,-1.089820359281437
2.806,-1.1137724550898203
2.8080000000000003,-1.2095808383233533
2.81,-1.1796407185628743
2.8120000000000003,-1.2095808383233533
2.814,-1.2395209580838322
2.816,-1.2574850299401197
2.818,-1.3712574850299402
2.82,-1.4311377245508983
2.822,-1.347305389221557
2.824,-1.3652694610778444
2.826,-1.3592814371257484
2.828,-1.401197604790419
2.83,-1.3832335329341316
2.832,-1.3892215568862276
2.834,-1.401197604790419
2.836,-1.473053892215569
2.838,-1.526946107784431
2.84,-1.5389221556886228
2.842,-1.5209580838323353
2.844,-1.5449101796407185
2.846,-1.5449101796407185
2.848,-1.4970059880239521
2.85,-1.4610778443113772
2.852,-1.5868263473053892
2.854,-1.526946107784431
2.856,-1.5029940119760479
2.858,-1.4491017964071857
2.86,-1.526946107784431
2.862,-1.473053892215569
2.864,-1.4311377245508983
2.866,-1.4311377245508983
2.868,-1.5089820359281436
2.87,-1.467065868263473
2.872,-1.4970059880239521
2.874,-1.5449101796407185
2.876,-1.473053892215569
2.878,-1.4251497005988023
2.88,-1.4790419161676647
2.882,-1.407185628742515
2.884,-1.407185628742515
2.886,-1.4550898203592815
2.888,-1.4431137724550898
2.89,-1.4610778443113772
2.892,-1.4850299401197604
2.894,-1.5149700598802396
2.896,-1.4910179640718564
2.898,-1.4610778443113772
2.9,-1.437125748502994
2.902,-1.4610778443113772
2.904,-1.526946107784431
2.906,-1.5449101796407185
2.908,-1.4910179640718564
2.91,-1.4550898203592815
2.912,-1.4191616766467066
2.914,-1.4850299401197604
2.916,-1.3892215568862276
2.918,-1.4191616766467066
2.92,-1.4311377245508983
2.922,-1.407185628742515
2.924,-1.3532934131736527
2.926,-1.341317365269461
2.928,-1.4131736526946108
2.93,-1.3712574850299402
2.932,-1.3233532934131738
2.934,-1.407185628742515
2.936,-1.4431137724550898
2.938,-1.3652694610778444
2.94,-1.2874251497005988
2.942,-1.3053892215568863
2.944,-1.3532934131736527
2.946,-1.4191616766467066
2.948,-1.377245508982036
2.95,-1.4131736526946108
2.952,-1.3712574850299402
2.954,-1.401197604790419
2.956,-1.3233532934131738
2.958,-1.341317365269461
2.96,-1.3293413173652695
2.962,-1.2455089820359282
2.964,-1.2694610778443114
2.966,-1.281437125748503
2.968,-1.2694610778443114
2.97,-1.2694610778443114
2.972,-1.311377245508982
2.974,-1.2934131736526946
2.976,-1.2934131736526946
2.978,-1.2035928143712575
2.98,-1.281437125748503
2.982,-1.311377245508982
2.984,-1.3173652694610778
2.986,-1.2934131736526946
2.988,-1.281437125748503
2.99,-1.215568862275449
2.992,-1.2335329341317365
2.994,-1.251497005988024
2.996,-1.2455089820359282
2.998,-1.2275449101796407
3.0,-1.2455089820359282
3.0020000000000002,-1.215568862275449
3.004,-1.2754491017964071
3.0060000000000002,-1.2874251497005988
3.008,-1.3353293413173652
3.0100000000000002,-1.1377245508982037
3.012,-1.0838323353293413
3.0140000000000002,-1.18562874251497
3.016,-1.2574850299401197
3.0180000000000002,-1.2754491017964071
3.02,-1.281437125748503
3.0220000000000002,-1.1916167664670658
3.024,-1.2335329341317365
3.0260000000000002,-1.215568862275449
3.028,-1.251497005988024
3.0300000000000002,-1.2395209580838322
3.032,-1.2874251497005988
3.0340000000000003,-1.2335329341317365
3.036,-1.281437125748503
3.0380000000000003,-1.281437125748503
3.04,-1.281437125748503
3.0420000000000003,-1.2754491017964071
3.044,-1.3053892215568863
3.0460000000000003,-1.2874251497005988
3.048,-1.3173652694610778
3.0500000000000003,-1.2634730538922156
3.052,-1.3592814371257484
3.0540000000000003,-1.3712574850299402
3.056,-1.4431137724550898
3.0580000000000003,-1.2874251497005988
3.06,-1.2634730538922156
3.0620000000000003,-1.2934131736526946
3.064,-1.341317365269461
3.0660000000000003,-1.3592814371257484
3.068,-1.3173652694610778
3.0700000000000003,-1.3233532934131738
3.072,-1.3173652694610778
3.074,-1.3532934131736527
3.076,-1.2994011976047903
3.078,-1.311377245508982
3.08,-1.2934131736526946
3.082,-1.2574850299401197
3.084,-1.3233532934131738
3.086,-1.3173652694610778
3.088,-1.2574850299401197
3.09,-1.221556886227545
3.092,-1.2455089820359282
3.094,-1.2335329341317365
3.096,-1.3053892215568863
3.098,-1.3652694610778444
3.1,-1.2874251497005988
3.102,-1.2455089820359282
3.104,-1.2395209580838322
3.106,-1.2874251497005988
3.108,-1.311377245508982
3.11,-1.341317365269461
3.112,-1.3173652694610778
3.114,-1.2574850299401197
3.116,-1.281437125748503
3.118,-1.2994011976047903
3.12,-1.3053892215568863
3.122,-1.3293413173652695
3.124,-1.2634730538922156
3.126,-1.2035928143712575
3.128,-1.251497005988024
3.13,-1.2634730538922156
3.132,-1.1796407185628743
3.134,-1.2095808383233533
3.136,-1.2395209580838322
3.138,-1.089820359281437
3.14,-0.8922155688622755
3.142,-0.718562874251497
3.144,-0.6047904191616766
3.146,-0.5149700598802395
3.148,-0.3772455089820359
3.15,-0.2994011976047904
3.152,-0.32934131736526945
3.154,-0.4251497005988024
3.156,-0.5029940119760479
3.158,-0.9221556886227545
3.16,-1.5808383233532934
3.162,-2.1736526946107784
3.164,-2.3473053892215567
3.166,-2.5508982035928143
3.168,-2.5089820359281436
3.17,-2.3592814371257487
3.172,-2.568862275449102
3.174,-2.586826347305389
3.176,-2.568862275449102
3.178,-2.4910179640718564
3.18,-2.311377245508982
3.182,-2.281437125748503
3.184,-2.143712574850299
3.186,-2.065868263473054
3.188,-2.0
3.19,-1.9221556886227544
3.192,-1.7964071856287425
3.194,-1.7065868263473054
3.196,-1.6167664670658684
3.198,-1.6167664670658684
3.2,-1.5029940119760479
3.202,-1.407185628742515
3.204,-1.3832335329341316
3.206,-1.3353293413173652
3.208,-1.2694610778443114
3.21,-1.1916167664670658
3.212,-1.1736526946107784
3.214,-1.215568862275449
3.216,-1.1976047904191616
3.218,-1.2335329341317365
3.22,-1.2395209580838322
3.222,-1.1916167664670658
3.224,-1.1736526946107784
3.226,-1.1976047904191616
3.228,-1.1916167664670658
3.23,-1.18562874251497
3.232,-1.2455089820359282
3.234,-1.1736526946107784
3.236,-1.1616766467065869
3.238,-1.1616766467065869
3.24,-1.1317365269461077
3.242,-1.1497005988023952
3.244,-1.1137724550898203
3.246,-1.1497005988023952
3.248,-1.1916167664670658
3.25,-1.1497005988023952
3.2520000000000002,-1.125748502994012
3.254,-1.1017964071856288
3.2560000000000002,-1.125748502994012
3.258,-1.125748502994012
3.2600000000000002,-1.0778443113772456
3.262,-1.0538922155688624
3.2640000000000002,-1.1676646706586826
3.266,-1.1377245508982037
3.2680000000000002,-1.1317365269461077
3.27,-1.0419161676646707
3.2720000000000002,-1.0239520958083832
3.274,-1.029940119760479
3.2760000000000002,-0.9940119760479041
3.278,-1.0059880239520957
3.2800000000000002,-1.0658682634730539
3.282,-1.0059880239520957
3.2840000000000003,-1.035928143712575
3.286,-1.0538922155688624
3.2880000000000003,-1.0479041916167664
3.29,-1.035928143712575
3.2920000000000003,-1.0598802395209581
3.294,-1.029940119760479
3.2960000000000003,-0.9880239520958084
3.298,-0.9580838323353293
3.3000000000000003,-0.9401197604790419
3.302,-0.9041916167664671
3.3040000000000003,-0.8982035928143712
3.306,-0.8682634730538922
3.3080000000000003,-0.8622754491017964
3.31,-0.8982035928143712
3.3120000000000003,-0.8862275449101796
3.314,-0.8922155688622755
3.3160000000000003,-0.9161676646706587
3.318,-0.874251497005988
3.3200000000000003,-0.6706586826347305
3.322,-0.6766467065868264
3.3240000000000003,-0.718562874251497
3.326,-0.7724550898203593
3.3280000000000003,-0.7365269461077845
3.33,-0.6526946107784432
3.332,-0.7005988023952096
3.334,-0.7125748502994012
3.336,-0.688622754491018
3.338,-0.6526946107784432
3.34,-0.6826347305389222
3.342,-0.7005988023952096
3.344,-0.6586826347305389
3.346,-0.6347305389221557
3.348,-0.5988023952095808
3.35,-0.5329341317365269
3.352,-0.5209580838323353
3.354,-0.5688622754491018
3.356,-0.592814371257485
3.358,-0.6167664670658682
3.36,-0.5988023952095808
3.362,-0.5808383233532934
3.364,-0.6287425149700598
3.366,-0.688622754491018
3.368,-0.6526946107784432
3.37,-0.6586826347305389
3.372,-0.7544910179640718
3.374,-0.7844311377245509
3.376,-0.7724550898203593
3.378,-0.8083832335329342
3.38,-0.8562874251497006
3.382,-0.9041916167664671
3.384,-0.8682634730538922
3.386,-0.8922155688622755
3.388,-0.9760479041916168
3.39,-1.0119760479041917
3.392,-0.9940119760479041
3.394,-1.0538922155688624
3.396,-1.125748502994012
3.398,-1.1077844311377245
3.4,-0.9940119760479041
3.402,-1.035928143712575
3.404,-1.1796407185628743
3.406,-1.2275449101796407
3.408,-1.221556886227545
3.41,-1.1676646706586826
3.412,-1.2395209580838322
3.414,-1.1976047904191616
3.416,-1.2275449101796407
3.418,-1.251497005988024
3.42,-1.2574850299401197
3.422,-1.215568862275449
3.424,-1.215568862275449
3.426,-1.2335329341317365
3.428,-1.3353293413173652
3.43,-1.2395209580838322
3.432,-1.251497005988024
3.434,-1.2994011976047903
3.436,-1.347305389221557
3.438,-1.3712574850299402
3.44,-1.2934131736526946
3.442,-1.2754491017964071
3.444,-1.2335329341317365
3.446,-1.2574850299401197
3.448,-1.2934131736526946
3.45,-1.2754491017964071
3.452,-1.3173652694610778
3.454,-1.2694610778443114
3.456,-1.2754491017964071
3.458,-1.2694610778443114
3.46,-1.2934131736526946
3.462,-1.3233532934131738
3.464,-1.3173652694610778
3.466,-1.3293413173652695
3.468,-1.3353293413173652
3.47,-1.3532934131736527
3.472,-1.3892215568862276
3.474,-1.3952095808383234
3.476,-1.3293413173652695
3.478,-1.2035928143712575
3.48,-1.1916167664670658
3.482,-1.311377245508982
3.484,-1.341317365269461
3.486,-1.2634730538922156
3.488,-1.251497005988024
3.49,-1.311377245508982
3.492,-1.2574850299401197
3.494,-1.2634730538922156
3.496,-1.2754491017964071
3.498,-1.2634730538922156
3.5,-1.2934131736526946
3.5020000000000002,-1.2994011976047903
3.504,-1.3532934131736527
3.5060000000000002,-1.4251497005988023
3.508,-1.3712574850299402
3.5100000000000002,-1.2754491017964071
3.512,-1.2994011976047903
3.5140000000000002,-1.3592814371257484
3.516,-1.4131736526946108
3.5180000000000002,-1.401197604790419
3.52,-1.2994011976047903
3.5220000000000002,-1.2574850299401197
3.524,-1.3353293413173652
3.5260000000000002,-1.3652694610778444
3.528,-1.407185628742515
3.5300000000000002,-1.407185628742515
3.532,-1.3832335329341316
3.5340000000000003,-1.3053892215568863
3.536,-1.2455089820359282
3.5380000000000003,-1.347305389221557
3.54,-1.3353293413173652
3.5420000000000003,-1.251497005988024
3.544,-1.2275449101796407
3.5460000000000003,-1.2634730538922156
3.548,-1.2455089820359282
3.5500000000000003,-1.3712574850299402
3.552,-1.3592814371257484
3.5540000000000003,-1.2874251497005988
3.556,-1.2754491017964071
3.5580000000000003,-1.3053892215568863
3.56,-1.281437125748503
3.5620000000000003,-1.2694610778443114
3.564,-1.2275449101796407
3.5660000000000003,-1.2335329341317365
3.568,-1.2395209580838322
3.5700000000000003,-1.3233532934131738
3.572,-1.2395209580838322
3.5740000000000003,-1.2095808383233533
3.576,-1.281437125748503
3.5780000000000003,-1.221556886227545
3.58,-1.125748502994012
3.5820000000000003,-1.311377245508982
3.584,-1.2335329341317365
3.586,-1.215568862275449
3.588,-1.2455089820359282
3.59,-1.2455089820359282
3.592,-1.1976047904191616
3.594,-1.2934131736526946
3.596,-1.2694610778443114
3.598,-1.2694610778443114
3.6,-1.18562874251497
3.602,-1.251497005988024
3.604,-1.2934131736526946
3.606,-1.2634730538922156
3.608,-1.1736526946107784
3.61,-1.1796407185628743
3.612,-1.2574850299401197
3.614,-1.3053892215568863
3.616,-1.311377245508982
3.618,-1.2934131736526946
3.62,-1.2934131736526946
3.622,-1.347305389221557
3.624,-1.341317365269461
3.626,-1.2994011976047903
3.628,-1.311377245508982
3.63,-1.3173652694610778
3.632,-1.3173652694610778
3.634,-1.3293413173652695
3.636,-1.3832335329341316
3.638,-1.341317365269461
3.64,-1.3353293413173652
3.642,-1.3892215568862276
3.644,-1.3233532934131738
3.646,-1.347305389221557
3.648,-1.3293413173652695
3.65,-1.2934131736526946
3.652,-1.3173652694610778
3.654,-1.3053892215568863
3.656,-1.341317365269461
3.658,-1.3173652694610778
3.66,-1.3293413173652695
3.662,-1.3293413173652695
3.664,-1.3712574850299402
3.666,-1.407185628742515
3.668,-1.3353293413173652
3.67,-1.3353293413173652
3.672,-1.3652694610778444
3.674,-1.311377245508982
3.676,-1.347305389221557
3.678,-1.4550898203592815
3.68,-1.2994011976047903
3.682,-1.2934131736526946
3.684,-1.2874251497005988
3.686,-1.2035928143712575
3.688,-1.2874251497005988
3.69,-1.3233532934131738
3.692,-1.3173652694610778
3.694,-1.3233532934131738
3.696,-1.3592814371257484
3.698,-1.3652694610778444
3.7,-1.2335329341317365
3.702,-1.2994011976047903
3.704,-1.2874251497005988
3.706,-1.1916167664670658
3.708,-1.155688622754491
3.71,-1.1077844311377245
3.712,-1.0419161676646707
3.714,-0.9580838323353293
3.716,-0.8562874251497006
3.718,-0.7005988023952096
3.72,-0.5508982035928144
3.722,-0.41317365269461076
3.724,-0.40119760479041916
3.726,-0.3592814371257485
3.728,-0.3772455089820359
3.73,-0.40119760479041916
3.732,-0.6646706586826348
3.734,-1.2095808383233533
3.736,-1.718562874251497
3.738,-2.215568862275449
3.74,-2.4910179640718564
3.742,-2.7065868263473054
3.744,-2.730538922155689
3.746,-2.622754491017964
3.748,-2.5988023952095807
3.75,-2.694610778443114
3.7520000000000002,-2.538922155688623
3.754,-2.4730538922155687
3.7560000000000002,-2.3892215568862274
3.758,-2.2934131736526946
3.7600000000000002,-2.2395209580838324
3.762,-2.0179640718562872
3.7640000000000002,-1.9940119760479043
3.766,-1.9221556886227544
3.7680000000000002,-1.8622754491017963
3.77,-1.7664670658682635
3.7720000000000002,-1.6467065868263473
3.774,-1.5688622754491017
3.7760000000000002,-1.5149700598802396
3.778,-1.473053892215569
3.7800000000000002,-1.4131736526946108
3.782,-1.4131736526946108
3.7840000000000003,-1.2934131736526946
3.786,-1.2634730538922156
3.7880000000000003,-1.2335329341317365
3.79,-1.2035928143712575
3.7920000000000003,-1.2455089820359282
3.794,-1.1976047904191616
3.7960000000000003,-1.1437125748502994
3.798,-1.221556886227545
3.8000000000000003,-1.1796407185628743
3.802,-1.1017964071856288
3.8040000000000003,-1.095808383233533
3.806,-1.089820359281437
3.8080000000000003,-1.095808383233533
3.81,-1.1317365269461077
3.8120000000000003,-1.1736526946107784
3.814,-1.155688622754491
3.8160000000000003,-1.1676646706586826
3.818,-1.1676646706586826
3.8200000000000003,-1.1317365269461077
3.822,-1.1317365269461077
3.8240000000000003,-1.1077844311377245
3.826,-1.1317365269461077
3.8280000000000003,-1.1377245508982037
3.83,-1.0419161676646707
3.8320000000000003,-1.029940119760479
3.834,-1.0538922155688624
3.8360000000000003,-1.095808383233533
3.838,-1.0718562874251496
3.84,-1.0479041916167664
3.842,-1.0419161676646707
3.844,-1.0239520958083832
3.846,-1.0179640718562875
3.848,-1.0239520958083832
3.85,-1.0598802395209581
3.852,-1.0479041916167664
3.854,-1.0
3.856,-1.0059880239520957
3.858,-0.9700598802395209
3.86,-0.9580838323353293
3.862,-1.0059880239520957
3.864,-0.9760479041916168
3.866,-0.9221556886227545
3.868,-0.9221556886227545
3.87,-0.9281437125748503
3.872,-0.9520958083832335
3.874,-0.8622754491017964
3.876,-0.8982035928143712
3.878,-0.9401197604790419
3.88,-0.9041916167664671
3.882,-0.8323353293413174
3.884,-0.844311377245509
3.886,-0.8083832335329342
3.888,-0.7964071856287425
3.89,-0.7305389221556886
3.892,-0.6766467065868264
3.894,-0.7425149700598802
3.896,-0.7784431137724551
3.898,-0.7604790419161677
3.9,-0.688622754491018
3.902,-0.6646706586826348
3.904,-0.6526946107784432
3.906,-0.6047904191616766
3.908,-0.5748502994011976
3.91,-0.5389221556886228
3.912,-0.5269461077844312
3.914,-0.5389221556886228
3.916,-0.5269461077844312
3.918,-0.5269461077844312
3.92,-0.49101796407185627
3.922,-0.5449101796407185
3.924,-0.5269461077844312
3.926,-0.5089820359281437
3.928,-0.49700598802395207
3.93,-0.49101796407185627
3.932,-0.48502994011976047
3.934,-0.46107784431137727
3.936,-0.47305389221556887
3.938,-0.5449101796407185
3.94,-0.5089820359281437
3.942,-0.562874251497006
3.944,-0.49101796407185627
3.946,-0.6047904191616766
3.948,-0.6586826347305389
3.95,-0.5748502994011976
3.952,-0.6706586826347305
3.954,-0.7365269461077845
3.956,-0.7664670658682635
3.958,-0.7784431137724551
3.96,-0.7904191616766467
3.962,-0.8023952095808383
3.964,-0.7844311377245509
3.966,-0.8143712574850299
3.968,-0.8562874251497006
3.97,-0.9161676646706587
3.972,-1.0239520958083832
3.974,-1.0778443113772456
3.976,-1.0419161676646707
3.978,-0.9401197604790419
3.98,-1.0538922155688624
3.982,-1.1197604790419162
3.984,-1.1197604790419162
3.986,-1.1377245508982037
3.988,-1.1616766467065869
3.99,-1.1137724550898203
3.992,-1.1317365269461077
3.994,-1.1137724550898203
3.996,-1.095808383233533
3.998,-1.125748502994012
4.0,-1.1197604790419162
4.002,-1.1676646706586826
4.0040000000000004,-1.215568862275449
4.006,-1.2574850299401197
4.008,-1.2634730538922156
4.01,-1.2335329341317365
4.0120000000000005,-1.1796407185628743
4.014,-1.1676646706586826
4.016,-1.1676646706586826
4.018,-1.215568862275449
4.0200000000000005,-1.3053892215568863
4.022,-1.221556886227545
4.024,-1.281437125748503
4.026,-1.3353293413173652
4.0280000000000005,-1.2634730538922156
4.03,-1.2754491017964071
4.032,-1.311377245508982
4.034,-1.341317365269461
4.0360000000000005,-1.3353293413173652
4.038,-1.2994011976047903
4.04,-1.2335329341317365
4.042,-1.2694610778443114
4.0440000000000005,-1.221556886227545
4.046,-1.251497005988024
4.048,-1.281437125748503
4.05,-1.251497005988024
4.0520000000000005,-1.251497005988024
4.054,-1.281437125748503
4.056,-1.2994011976047903
4.058,-1.281437125748503
4.0600000000000005,-1.2874251497005988
4.062,-1.2634730538922156
4.064,-1.2574850299401197
4.066,-1.281437125748503
4.0680000000000005,-1.2335329341317365
4.07,-1.2994011976047903
4.072,-1.3173652694610778
4.074,-1.2934131736526946
4.0760000000000005,-1.2934131736526946
4.078,-1.3532934131736527
4.08,-1.3712574850299402
4.082,-1.3053892215568863
4.0840000000000005,-1.2275449101796407
4.086,-1.215568862275449
4.088,-1.281437125748503
4.09,-1.2874251497005988
4.0920000000000005,-1.1676646706586826
4.094,-1.2095808383233533
4.096,-1.311377245508982
4.098,-1.2874251497005988
4.1,-1.2874251497005988
4.102,-1.215568862275449
4.104,-1.2095808383233533
4.106,-1.2994011976047903
4.108,-1.2634730538922156
4.11,-1.2694610778443114
4.112,-1.221556886227545
4.114,-1.1736526946107784
4.116,-1.2095808383233533
4.118,-1.1916167664670658
4.12,-1.2694610778443114
4.122,-1.2754491017964071
4.124,-1.221556886227545
4.126,-1.2754491017964071
4.128,-1.1377245508982037
4.13,-1.0658682634730539
4.132,-1.1197604790419162
4.134,-1.1497005988023952
4.136,-1.18562874251497
4.138,-1.1676646706586826
4.14,-1.1976047904191616
4.142,-1.1616766467065869
4.144,-1.1736526946107784
4.146,-1.18562874251497
4.148,-1.1676646706586826
4.15,-1.1377245508982037
4.152,-1.155688622754491
4.154,-1.1377245508982037
4.156,-1.1736526946107784
4.158,-1.155688622754491
4.16,-1.1616766467065869
4.162,-1.125748502994012
4.164,-1.1377245508982037
4.166,-1.1736526946107784
4.168,-1.1077844311377245
4.17,-1.089820359281437
4.172,-1.125748502994012
4.174,-1.125748502994012
4.176,-1.0778443113772456
4.178,-1.1317365269461077
4.18,-1.155688622754491
4.182,-1.0778443113772456
4.184,-1.0419161676646707
4.186,-1.0718562874251496
4.188,-1.095808383233533
4.19,-1.095808383233533
4.192,-1.095808383233533
4.194,-1.1676646706586826
4.196,-1.155688622754491
4.198,-1.1317365269461077
4.2,-1.1137724550898203
4.202,-1.125748502994012
4.204,-1.1736526946107784
4.206,-1.1137724550898203
4.208,-1.095808383233533
4.21,-1.095808383233533
4.212,-1.2035928143712575
4.214,-1.311377245508982
4.216,-1.2335329341317365
4.218,-1.1137724550898203
4.22,-1.125748502994012
4.222,-1.1796407185628743
4.224,-1.2275449101796407
4.226,-1.2754491017964071
4.228,-1.1616766467065869
4.23,-1.1197604790419162
4.232,-1.1976047904191616
4.234,-1.1796407185628743
4.236,-1.1796407185628743
4.238,-1.1497005988023952
4.24,-1.1916167664670658
4.242,-1.2035928143712575
4.244,-1.2335329341317365
4.246,-1.251497005988024
4.248,-1.2335329341317365
4.25,-1.2694610778443114
4.252,-1.2934131736526946
4.2540000000000004,-1.155688622754491
4.256,-1.1976047904191616
4.258,-1.221556886227545
4.26,-1.1976047904191616
4.2620000000000005,-1.125748502994012
4.264,-1.1676646706586826
4.266,-1.18562874251497
4.268,-1.18562874251497
4.2700000000000005,-1.1796407185628743
4.272,-1.221556886227545
4.274,-1.215568862275449
4.276,-1.251497005988024
4.2780000000000005,-1.1976047904191616
4.28,-1.1736526946107784
4.282,-1.1377245508982037
4.284,-1.1377245508982037
4.2860000000000005,-1.1317365269461077
4.288,-1.215568862275449
4.29,-1.1077844311377245
4.292,-0.9940119760479041
4.2940000000000005,-1.0059880239520957
4.296,-0.9281437125748503
4.298,-0.8622754491017964
4.3,-0.7365269461077845
4.3020000000000005,-0.5748502994011976
4.304,-0.4550898203592814
4.306,-0.40119760479041916
4.308,-0.2754491017964072
4.3100000000000005,-0.23353293413173654
4.312,-0.24550898203592814
4.314,-0.2934131736526946
4.316,-0.4491017964071856
4.3180000000000005,-0.9461077844311377
4.32,-1.5748502994011977
4.322,-2.1377245508982035
4.324,-2.3832335329341316
4.3260000000000005,-2.5089820359281436
4.328,-2.5449101796407185
4.33,-2.532934131736527
4.332,-2.55688622754491
4.3340000000000005,-2.4910179640718564
4.336,-2.5149700598802394
4.338,-2.467065868263473
4.34,-2.3473053892215567
4.3420000000000005,-2.2095808383233533
4.344,-2.2095808383233533
4.346,-2.0119760479041915
4.348,-1.874251497005988
4.3500000000000005,-1.8083832335329342
4.352,-1.778443113772455
4.354,-1.6347305389221556
4.356,-1.5389221556886228
4.358,-1.4431137724550898
4.36,-1.437125748502994
4.362,-1.3652694610778444
4.364,-1.3532934131736527
4.366,-1.3293413173652695
4.368,-1.215568862275449
4.37,-1.1197604790419162
4.372,-1.1197604790419162
4.374,-1.0778443113772456
4.376,-1.1077844311377245
4.378,-1.1437125748502994
4.38,-1.1317365269461077
4.382,-1.0538922155688624
4.384,-1.035928143712575
4.386,-1.0838323353293413
4.388,-1.1017964071856288
4.39,-1.0718562874251496
4.392,-1.035928143712575
4.394,-1.0658682634730539
4.396,-1.1017964071856288
4.398,-1.0538922155688624
4.4,-1.0059880239520957
4.402,-1.0538922155688624
4.404,-1.0059880239520957
4.406,-1.0119760479041917
4.408,-1.029940119760479
4.41,-1.0239520958083832
4.412,-1.029940119760479
4.414,-0.9700598802395209
4.416,-0.9520958083832335
4.418,-1.0419161676646707
4.42,-1.0778443113772456
4.422,-0.9461077844311377
4.424,-0.9760479041916168
4.426,-0.9820359281437125
4.428,-1.0179640718562875
4.43,-0.9580838323353293
4.432,-0.9221556886227545
4.434,-0.8982035928143712
4.436,-0.9221556886227545
4.438,-0.9221556886227545
4.44,-0.8922155688622755
4.442,-0.8982035928143712
4.444,-0.9101796407185628
4.446,-0.8862275449101796
4.448,-0.8982035928143712
4.45,-0.8862275449101796
4.452,-0.8862275449101796
4.454,-0.8562874251497006
4.456,-0.7904191616766467
4.458,-0.8383233532934131
4.46,-0.8023952095808383
4.462,-0.7904191616766467
4.464,-0.8263473053892215
4.466,-0.8083832335329342
4.468,-0.7604790419161677
4.47,-0.6586826347305389
4.472,-0.7425149700598802
4.474,-0.8383233532934131
4.476,-0.7005988023952096
4.478,-0.6227544910179641
4.48,-0.5988023952095808
4.482,-0.6107784431137725
4.484,-0.5508982035928144
4.486,-0.5149700598802395
4.488,-0.5748502994011976
4.49,-0.5269461077844312
4.492,-0.5089820359281437
4.494,-0.4550898203592814
4.496,-0.47904191616766467
4.498,-0.4491017964071856
4.5,-0.38323353293413176
4.502,-0.47305389221556887
4.5040000000000004,-0.47305389221556887
4.506,-0.4431137724550898
4.508,-0.40718562874251496
4.51,-0.4251497005988024
4.5120000000000005,-0.38323353293413176
4.514,-0.41916167664670656
4.516,-0.3772455089820359
4.518,-0.38922155688622756
4.5200000000000005,-0.3772455089820359
4.522,-0.49101796407185627
4.524,-0.48502994011976047
4.526,-0.41916167664670656
4.5280000000000005,-0.41916167664670656
4.53,-0.4431137724550898
4.532,-0.46107784431137727
4.534,-0.5329341317365269
4.5360000000000005,-0.562874251497006
4.538,-0.5508982035928144
4.54,-0.6227544910179641
4.542,-0.6586826347305389
4.5440000000000005,-0.6646706586826348
4.546,-0.7005988023952096
4.548,-0.7245508982035929
4.55,-0.7425149700598802
4.5520000000000005,-0.8083832335329342
4.554,-0.8323353293413174
4.556,-0.8263473053892215
4.558,-0.8203592814371258
4.5600000000000005,-0.9041916167664671
4.562,-0.9281437125748503
4.564,-0.9640718562874252
4.566,-1.0119760479041917
4.5680000000000005,-1.035928143712575
4.57,-1.029940119760479
4.572,-0.9820359281437125
4.574,-1.0119760479041917
4.5760000000000005,-1.035928143712575
4.578,-1.1017964071856288
4.58,-1.1077844311377245
4.582,-1.0598802395209581
4.5840000000000005,-1.1017964071856288
4.586,-1.1497005988023952
4.588,-1.0778443113772456
4.59,-1.1137724550898203
4.5920000000000005,-1.095808383233533
4.594,-1.125748502994012
4.596,-1.1017964071856288
4.598,-1.0538922155688624
4.6000000000000005,-1.1437125748502994
4.602,-1.089820359281437
4.604,-1.1197604790419162
4.606,-1.125748502994012
4.6080000000000005,-1.089820359281437
4.61,-1.155688622754491
4.612,-1.1616766467065869
4.614,-1.1077844311377245
4.616,-1.1137724550898203
4.618,-1.0479041916167664
4.62,-1.089820359281437
4.622,-1.1137724550898203
4.624,-1.1017964071856288
4.626,-1.1377245508982037
4.628,-1.0658682634730539
4.63,-1.0838323353293413
4.632,-1.0838323353293413
4.634,-1.155688622754491
4.636,-1.1197604790419162
4.638,-1.1077844311377245
4.64,-1.125748502994012
4.642,-1.1077844311377245
4.644,-1.1317365269461077
4.646,-1.0718562874251496
4.648,-1.029940119760479
4.65,-1.0598802395209581
4.652,-1.1317365269461077
4.654,-1.0658682634730539
4.656,-1.0538922155688624
4.658,-1.0778443113772456
4.66,-1.0718562874251496
4.662,-1.0778443113772456
4.664,-1.0598802395209581
4.666,-1.035928143712575
4.668,-0.9880239520958084
4.67,-1.0239520958083832
4.672,-0.9760479041916168
4.674,-0.9880239520958084
4.676,-0.9760479041916168
4.678,-0.9760479041916168
4.68,-0.9880239520958084
4.682,-0.9820359281437125
4.684,-1.0
4.686,-0.9880239520958084
4.688,-1.0239520958083832
4.69,-1.0119760479041917
4.692,-1.0419161676646707
4.694,-1.0838323353293413
4.696,-1.0479041916167664
4.698,-0.9580838323353293
4.7,-1.0119760479041917
4.702,-1.0598802395209581
4.704,-1.0598802395209581
4.706,-1.029940119760479
4.708,-1.0059880239520957
4.71,-0.9760479041916168
4.712,-0.9880239520958084
4.714,-1.0059880239520957
4.716,-0.9760479041916168
4.718,-1.029940119760479
4.72,-0.9461077844311377
4.722,-1.0059880239520957
4.724,-0.9520958083832335
4.726,-0.9281437125748503
4.728,-0.9041916167664671
4.73,-0.9221556886227545
4.732,-0.9760479041916168
4.734,-0.9880239520958084
4.736,-0.9700598802395209
4.738,-0.9820359281437125
4.74,-0.9760479041916168
4.742,-0.9940119760479041
4.744,-0.9940119760479041
4.746,-0.9880239520958084
4.748,-1.0239520958083832
4.75,-1.0658682634730539
4.752,-1.0718562874251496
4.7540000000000004,-1.0598802395209581
4.756,-1.0538922155688624
4.758,-1.1676646706586826
4.76,-1.1197604790419162
4.7620000000000005,-0.9640718562874252
4.764,-0.9760479041916168
4.766,-1.0059880239520957
4.768,-1.0179640718562875
4.7700000000000005,-1.0119760479041917
4.772,-1.035928143712575
4.774,-1.0658682634730539
4.776,-1.0598802395209581
4.7780000000000005,-1.0179640718562875
4.78,-1.0059880239520957
4.782,-1.0718562874251496
4.784,-1.0538922155688624
4.7860000000000005,-1.0778443113772456
4.788,-1.1317365269461077
4.79,-1.089820359281437
4.792,-1.1077844311377245
4.7940000000000005,-1.095808383233533
4.796,-1.0838323353293413
4.798,-1.0838323353293413
4.8,-1.089820359281437
4.8020000000000005,-1.0838323353293413
4.804,-1.029940119760479
4.806,-1.029940119760479
4.808,-1.0598802395209581
4.8100000000000005,-1.0778443113772456
4.812,-1.0838323353293413
4.814,-1.089820359281437
4.816,-1.0778443113772456
4.8180000000000005,-1.095808383233533
4.82,-1.0838323353293413
4.822,-1.1017964071856288
4.824,-1.095808383233533
4.8260000000000005,-1.0778443113772456
4.828,-1.0598802395209581
4.83,-1.029940119760479
4.832,-1.0778443113772456
4.8340000000000005,-1.0718562874251496
4.836,-1.035928143712575
4.838,-1.0598802395209581
4.84,-1.0479041916167664
4.8420000000000005,-0.9640718562874252
4.844,-0.8562874251497006
4.846,-0.9161676646706587
4.848,-0.9041916167664671
4.8500000000000005,-0.7125748502994012
4.852,-0.5508982035928144
4.854,-0.4550898203592814
4.856,-0.3473053892215569
4.8580000000000005,-0.2275449101796407
4.86,-0.18562874251497005
4.862,-0.1437125748502994
4.864,-0.11377245508982035
4.866,-0.15568862275449102
4.868,-0.19161676646706588
4.87,-0.6107784431137725
4.872,-1.2455089820359282
4.874,-1.910179640718563
4.876,-2.1736526946107784
4.878,-2.3532934131736525
4.88,-2.3592814371257487
4.882,-2.431137724550898
4.884,-2.377245508982036
4.886,-2.37125748502994
4.888,-2.3892215568862274
4.89,-2.341317365269461
4.892,-2.2994011976047903
4.894,-2.1676646706586826
4.896,-2.0419161676646707
4.898,-1.9281437125748504
4.9,-1.910179640718563
4.902,-1.8083832335329342
4.904,-1.748502994011976
4.906,-1.6347305389221556
4.908,-1.437125748502994
4.91,-1.341317365269461
4.912,-1.2874251497005988
4.914,-1.2395209580838322
4.916,-1.155688622754491
4.918,-1.1137724550898203
4.92,-1.0718562874251496
4.922,-1.0419161676646707
4.924,-1.0179640718562875
4.926,-1.0059880239520957
4.928,-1.0059880239520957
4.93,-0.9880239520958084
4.932,-1.029940119760479
4.934,-1.0119760479041917
4.936,-1.0
4.938,-1.0179640718562875
4.94,-0.9640718562874252
4.942,-0.9161676646706587
4.944,-0.9640718562874252
4.946,-0.874251497005988
4.948,-0.8862275449101796
4.95,-0.844311377245509
4.952,-0.8562874251497006
4.954,-0.8143712574850299
4.956,-0.8862275449101796
4.958,-0.8682634730538922
4.96,-0.874251497005988
4.962,-0.844311377245509
4.964,-0.8023952095808383
4.966,-0.8083832335329342
4.968,-0.8323353293413174
4.97,-0.8862275449101796
4.972,-0.8502994011976048
4.974,-0.844311377245509
4.976,-0.8862275449101796
4.978,-0.7904191616766467
4.98,-0.8263473053892215
4.982,-0.7904191616766467
4.984,-0.8083832335329342
4.986,-0.8383233532934131
4.988,-0.7964071856287425
4.99,-0.7245508982035929
4.992,-0.7664670658682635
4.994,-0.7664670658682635
4.996,-0.7724550898203593
4.998,-0.7305389221556886
5.0,-0.7245508982035929
5.002,-0.7005988023952096
5.0040000000000004,-0.7485029940119761
5.006,-0.7544910179640718
5.008,-0.7125748502994012
5.01,-0.7125748502994012
5.0120000000000005,-0.6826347305389222
5.014,-0.6467065868263473
5.016,-0.6407185628742516
5.018,-0.6526946107784432
5.0200000000000005,-0.6107784431137725
5.022,-0.6167664670658682
5.024,-0.5389221556886228
5.026,-0.5209580838323353
5.0280000000000005,-0.5149700598802395
5.03,-0.47904191616766467
5.032,-0.40718562874251496
5.034,-0.46107784431137727
5.0360000000000005,-0.47904191616766467
5.038,-0.41317365269461076
5.04,-0.40718562874251496
5.042,-0.39520958083832336
5.0440000000000005,-0.38922155688622756
5.046,-0.31736526946107785
5.048,-0.33532934131736525
5.05,-0.2934131736526946
5.0520000000000005,-0.30538922155688625
5.054,-0.3592814371257485
5.056,-0.3473053892215569
5.058,-0.2754491017964072
5.0600000000000005,-0.2754491017964072
5.062,-0.2275449101796407
5.064,-0.24550898203592814
5.066,-0.2994011976047904
5.0680000000000005,-0.3413173652694611
5.07,-0.2694610778443114
5.072,-0.23353293413173654
5.074,-0.24550898203592814
5.0760000000000005,-0.281437125748503
5.078,-0.30538922155688625
5.08,-0.2754491017964072
5.082,-0.32934131736526945
5.0840000000000005,-0.31137724550898205
5.086,-0.3413173652694611
5.088,-0.38323353293413176
5.09,-0.41317365269461076
5.0920000000000005,-0.5329341317365269
5.094,-0.5329341317365269
5.096,-0.5269461077844312
5.098,-0.5389221556886228
5.1000000000000005,-0.6167664670658682
5.102,-0.6586826347305389
5.104,-0.6766467065868264
5.106,-0.6586826347305389
5.1080000000000005,-0.6706586826347305
5.11,-0.7005988023952096
5.112,-0.7365269461077845
5.114,-0.8023952095808383
5.1160000000000005,-0.8263473053892215
5.118,-0.7724550898203593
5.12,-0.7784431137724551
5.122,-0.8562874251497006
5.124,-0.8862275449101796
5.126,-0.8023952095808383
5.128,-0.8682634730538922
5.13,-0.8802395209580839
5.132,-0.9161676646706587
5.134,-0.9041916167664671
5.136,-0.8922155688622755
5.138,-0.9221556886227545
5.14,-0.874251497005988
5.142,-0.9341317365269461
5.144,-0.9520958083832335
5.146,-0.9580838323353293
5.148,-0.9580838323353293
5.15,-0.9281437125748503
5.152,-0.9401197604790419
5.154,-0.9760479041916168
5.156,-0.9221556886227545
5.158,-1.0658682634730539
5.16,-1.0059880239520957
5.162,-0.9161676646706587
5.164,-0.9221556886227545
5.166,-0.9221556886227545
5.168,-0.9281437125748503
5.17,-0.9700598802395209
5.172,-0.9700598802395209
5.174,-0.9520958083832335
5.176,-0.9161676646706587
5.178,-0.8622754491017964
5.18,-0.9041916167664671
5.182,-0.9580838323353293
5.184,-0.9461077844311377
5.186,-0.9401197604790419
5.188,-0.9161676646706587
5.19,-0.9940119760479041
5.192,-0.9700598802395209
5.194,-0.9820359281437125
5.196,-0.9520958083832335
5.198,-0.9341317365269461
5.2,-0.9341317365269461
5.202,-0.9700598802395209
5.204,-0.9161676646706587
5.206,-0.9221556886227545
5.208,-0.9520958083832335
5.21,-0.9940119760479041
5.212,-0.9640718562874252
5.214,-0.9520958083832335
5.216,-0.9640718562874252
5.218,-0.9281437125748503
5.22,-0.8922155688622755
5.222,-0.9880239520958084
5.224,-0.9461077844311377
5.226,-0.8922155688622755
5.228,-0.8323353293413174
5.23,-0.8622754491017964
5.232,-0.9880239520958084
5.234,-0.9760479041916168
5.236,-0.9580838323353293
5.238,-0.9580838323353293
5.24,-0.8982035928143712
5.242,-0.8802395209580839
5.244,-0.8562874251497006
5.246,-0.8862275449101796
5.248,-0.8562874251497006
5.25,-0.8682634730538922
5.252,-0.8682634730538922
5.2540000000000004,-0.8622754491017964
5.256,-0.8862275449101796
5.258,-0.8622754491017964
5.26,-0.8383233532934131
5.2620000000000005,-0.8682634730538922
5.264,-0.8323353293413174
5.266,-0.7604790419161677
5.268,-0.7844311377245509
5.2700000000000005,-0.844311377245509
5.272,-0.8502994011976048
5.274,-0.8323353293413174
5.276,-0.8802395209580839
5.2780000000000005,-0.874251497005988
5.28,-0.8383233532934131
5.282,-0.8562874251497006
5.284,-0.844311377245509
5.2860000000000005,-0.8323353293413174
5.288,-0.8083832335329342
5.29,-0.8383233532934131
5.292,-0.8263473053892215
5.2940000000000005,-0.8083832335329342
5.296,-0.8323353293413174
5.298,-0.7904191616766467
5.3,-0.7784431137724551
5.3020000000000005,-0.7904191616766467
5.304,-0.7784431137724551
5.306,-0.7305389221556886
5.308,-0.7964071856287425
5.3100000000000005,-0.7664670658682635
5.312,-0.7724550898203593
5.314,-0.8203592814371258
5.316,-0.8203592814371258
5.3180000000000005,-0.8203592814371258
5.32,-0.8083832335329342
5.322,-0.8562874251497006
5.324,-0.8383233532934131
5.3260000000000005,-0.8263473053892215
5.328,-0.9041916167664671
5.33,-1.0119760479041917
5.332,-0.9520958083832335
5.3340000000000005,-0.9041916167664671
5.336,-0.9161676646706587
5.338,-0.9640718562874252
5.34,-0.8622754491017964
5.3420000000000005,-0.8203592814371258
5.344,-0.8263473053892215
5.346,-0.8682634730538922
5.348,-0.8802395209580839
5.3500000000000005,-0.874251497005988
5.352,-0.8383233532934131
5.354,-0.9041916167664671
5.356,-0.9341317365269461
5.3580000000000005,-0.9041916167664671
5.36,-0.9161676646706587
5.362,-0.9101796407185628
5.364,-0.8682634730538922
5.3660000000000005,-0.9221556886227545
5.368,-0.8502994011976048
5.37,-0.9161676646706587
5.372,-0.9221556886227545
5.3740000000000006,-0.8622754491017964
5.376,-0.8802395209580839
5.378,-0.8562874251497006
5.38,-0.8982035928143712
5.382,-0.8802395209580839
5.384,-0.9041916167664671
5.386,-0.9161676646706587
5.388,-0.9041916167664671
5.39,-0.9041916167664671
5.392,-0.9281437125748503
5.394,-0.9700598802395209
5.396,-0.9580838323353293
5.398,-0.874251497005988
5.4,-0.874251497005988
5.402,-0.9401197604790419
5.404,-0.9041916167664671
5.406,-0.9161676646706587
5.408,-0.9221556886227545
5.41,-0.9461077844311377
5.412,-0.9281437125748503
5.414,-0.9161676646706587
5.416,-0.8562874251497006
5.418,-0.8023952095808383
5.42,-0.7844311377245509
5.422,-0.8143712574850299
5.424,-0.7724550898203593
5.426,-0.7305389221556886
5.428,-0.6946107784431138
5.43,-0.39520958083832336
5.432,-0.32934131736526945
5.434,-0.32335329341317365
5.436,-0.17365269461077845
5.438,-0.07784431137724551
5.44,0.023952095808383235
5.442,0.09580838323353294
5.444,0.10778443113772455
5.446,0.041916167664670656
5.448,-0.25748502994011974
5.45,-0.7544910179640718
5.452,-1.347305389221557
5.454,-1.8562874251497006
5.456,-2.1077844311377247
5.458,-2.179640718562874
5.46,-2.245508982035928
5.462,-2.2634730538922154
5.464,-2.2754491017964074
5.466,-2.251497005988024
5.468,-2.2095808383233533
5.47,-2.07185628742515
5.472,-1.9760479041916168
5.474,-1.9880239520958083
5.476,-1.8263473053892216
5.478,-1.658682634730539
5.48,-1.652694610778443
5.482,-1.526946107784431
5.484,-1.4790419161676647
5.486,-1.3592814371257484
5.488,-1.1916167664670658
5.49,-1.095808383233533
5.492,-1.0179640718562875
5.494,-1.0598802395209581
5.496,-1.0179640718562875
5.498,-0.9880239520958084
5.5,-0.8982035928143712
5.502,-0.8562874251497006
5.5040000000000004,-0.8143712574850299
5.506,-0.7904191616766467
5.508,-0.8083832335329342
5.51,-0.7964071856287425
5.5120000000000005,-0.8023952095808383
5.514,-0.7904191616766467
5.516,-0.8263473053892215
5.518,-0.718562874251497
5.5200000000000005,-0.7425149700598802
5.522,-0.7904191616766467
5.524,-0.7784431137724551
5.526,-0.7544910179640718
5.5280000000000005,-0.6526946107784432
5.53,-0.6766467065868264
5.532,-0.688622754491018
5.534,-0.7125748502994012
5.5360000000000005,-0.7784431137724551
5.538,-0.7724550898203593
5.54,-0.7784431137724551
5.542,-0.7664670658682635
5.5440000000000005,-0.7005988023952096
5.546,-0.6586826347305389
5.548,-0.6407185628742516
5.55,-0.6766467065868264
5.5520000000000005,-0.718562874251497
5.554,-0.6706586826347305
5.556,-0.6347305389221557
5.558,-0.7125748502994012
5.5600000000000005,-0.7065868263473054
5.562,-0.6167664670658682
5.564,-0.6467065868263473
5.566,-0.6167664670658682
5.5680000000000005,-0.5868263473053892
5.57,-0.592814371257485
5.572,-0.5988023952095808
5.574,-0.6227544910179641
5.5760000000000005,-0.6107784431137725
5.578,-0.6047904191616766
5.58,-0.5868263473053892
5.582,-0.5688622754491018
5.5840000000000005,-0.6047904191616766
5.586,-0.5688622754491018
5.588,-0.5508982035928144
5.59,-0.5449101796407185
5.5920000000000005,-0.5389221556886228
5.594,-0.5209580838323353
5.596,-0.5089820359281437
5.598,-0.47904191616766467
5.6000000000000005,-0.47305389221556887
5.602,-0.437125748502994
5.604,-0.41317365269461076
5.606,-0.39520958083832336
5.6080000000000005,-0.3592814371257485
5.61,-0.38922155688622756
5.612,-0.32335329341317365
5.614,-0.30538922155688625
5.6160000000000005,-0.3592814371257485
5.618,-0.38323353293413176
5.62,-0.31736526946107785
5.622,-0.18562874251497005
5.6240000000000006,-0.2634730538922156
5.626,-0.2215568862275449
5.628,-0.19760479041916168
5.63,-0.10179640718562874
5.632,-0.16167664670658682
5.634,-0.16766467065868262
5.636,-0.1317365269461078
5.638,-0.12574850299401197
5.64,-0.11976047904191617
5.642,-0.12574850299401197
5.644,-0.11976047904191617
5.646,-0.10179640718562874
5.648,-0.1317365269461078
5.65,-0.1437125748502994
5.652,-0.12574850299401197
5.654,-0.12574850299401197
5.656,-0.20958083832335328
5.658,-0.2275449101796407
5.66,-0.19760479041916168
5.662,-0.23353293413173654
5.664,-0.20958083832335328
5.666,-0.25149700598802394
5.668,-0.2754491017964072
5.67,-0.2934131736526946
5.672,-0.32335329341317365
5.674,-0.3473053892215569
5.676,-0.4491017964071856
5.678,-0.4431137724550898
5.68,-0.4491017964071856
5.682,-0.5029940119760479
5.684,-0.5389221556886228
5.686,-0.5748502994011976
5.688,-0.592814371257485
5.69,-0.5389221556886228
5.692,-0.6107784431137725
5.694,-0.6467065868263473
5.696,-0.6646706586826348
5.698,-0.6526946107784432
5.7,-0.6646706586826348
5.702,-0.6706586826347305
5.704,-0.6826347305389222
5.706,-0.7305389221556886
5.708,-0.7065868263473054
5.71,-0.7245508982035929
5.712,-0.7664670658682635
5.714,-0.844311377245509
5.716,-0.8263473053892215
5.718,-0.7724550898203593
5.72,-0.8083832335329342
5.722,-0.7904191616766467
5.724,-0.8383233532934131
5.726,-0.7904191616766467
5.728,-0.7964071856287425
5.73,-0.7904191616766467
5.732,-0.7245508982035929
5.734,-0.8023952095808383
5.736,-0.7784431137724551
5.738,-0.8383233532934131
5.74,-0.8023952095808383
5.742,-0.7485029940119761
5.744,-0.7844311377245509
5.746,-0.7724550898203593
5.748,-0.7664670658682635
5.75,-0.7724550898203593
5.752,-0.7964071856287425
5.7540000000000004,-0.7844311377245509
5.756,-0.7784431137724551
5.758,-0.7724550898203593
5.76,-0.7724550898203593
5.7620000000000005,-0.8083832335329342
5.764,-0.7784431137724551
5.766,-0.8143712574850299
5.768,-0.7964071856287425
5.7700000000000005,-0.8143712574850299
5.772,-0.8083832335329342
5.774,-0.7844311377245509
5.776,-0.7904191616766467
5.7780000000000005,-0.8143712574850299
5.78,-0.7485029940119761
5.782,-0.7544910179640718
5.784,-0.7904191616766467
5.7860000000000005,-0.8383233532934131
5.788,-0.8023952095808383
5.79,-0.7664670658682635
5.792,-0.7125748502994012
5.7940000000000005,-0.8323353293413174
5.796,-0.8502994011976048
5.798,-0.8143712574850299
5.8,-0.8083832335329342
5.8020000000000005,-0.7784431137724551
5.804,-0.8083832335329342
5.806,-0.7604790419161677
5.808,-0.7784431137724551
5.8100000000000005,-0.7904191616766467
5.812,-0.7724550898203593
5.814,-0.8023952095808383
5.816,-0.8083832335329342
5.8180000000000005,-0.7485029940119761
5.82,-0.7485029940119761
5.822,-0.7425149700598802
5.824,-0.7065868263473054
5.8260000000000005,-0.7544910179640718
5.828,-0.7544910179640718
5.83,-0.6047904191616766
5.832,-0.6526946107784432
5.8340000000000005,-0.6946107784431138
5.836,-0.6706586826347305
5.838,-0.7664670658682635
5.84,-0.6586826347305389
5.8420000000000005,-0.6467065868263473
5.844,-0.7365269461077845
5.846,-0.7305389221556886
5.848,-0.7544910179640718
5.8500000000000005,-0.7664670658682635
5.852,-0.688622754491018
5.854,-0.7604790419161677
5.856,-0.7485029940119761
5.8580000000000005,-0.7125748502994012
5.86,-0.6946107784431138
5.862,-0.7005988023952096
5.864,-0.6646706586826348
5.8660000000000005,-0.6946107784431138
5.868,-0.6826347305389222
5.87,-0.6826347305389222
5.872,-0.6946107784431138
5.8740000000000006,-0.6526946107784432
5.876,-0.6946107784431138
5.878,-0.6766467065868264
5.88,-0.6706586826347305
5.882000000000001,-0.6227544910179641
5.884,-0.6467065868263473
5.886,-0.6586826347305389
5.888,-0.6766467065868264
5.89,-0.7005988023952096
5.892,-0.7065868263473054
5.894,-0.7005988023952096
5.896,-0.6347305389221557
5.898,-0.6107784431137725
5.9,-0.6047904191616766
5.902,-0.5988023952095808
5.904,-0.6107784431137725
5.906,-0.6646706586826348
5.908,-0.6646706586826348
5.91,-0.7065868263473054
5.912,-0.7365269461077845
5.914,-0.7425149700598802
5.916,-0.8083832335329342
5.918,-0.8143712574850299
5.92,-0.7724550898203593
5.922,-0.562874251497006
5.924,-0.6467065868263473
5.926,-0.7485029940119761
5.928,-0.8023952095808383
5.93,-0.7904191616766467
5.932,-0.7964071856287425
5.934,-0.7724550898203593
5.936,-0.7125748502994012
5.938,-0.7485029940119761
5.94,-0.7425149700598802
5.942,-0.7245508982035929
5.944,-0.7904191616766467
5.946,-0.7784431137724551
5.948,-0.7425149700598802
5.95,-0.7964071856287425
5.952,-0.8143712574850299
5.954,-0.7604790419161677
5.956,-0.7425149700598802
5.958,-0.7365269461077845
5.96,-0.7305389221556886
5.962,-0.7305389221556886
5.964,-0.7365269461077845
5.966,-0.7245508982035929
5.968,-0.7724550898203593
5.97,-0.7724550898203593
5.972,-0.7485029940119761
5.974,-0.7425149700598802
5.976,-0.7724550898203593
5.978,-0.8203592814371258
5.98,-0.8383233532934131
5.982,-0.8263473053892215
5.984,-0.7904191616766467
5.986,-0.7485029940119761
5.988,-0.7245508982035929
5.99,-0.7544910179640718
5.992,-0.8143712574850299
5.994,-0.8203592814371258
5.996,-0.8622754491017964
5.998,-0.7544910179640718
6.0,-0.6407185628742516
6.002,-0.6766467065868264
6.0040000000000004,-0.6586826347305389
6.006,-0.6047904191616766
6.008,-0.5868263473053892
6.01,-0.5389221556886228
6.0120000000000005,-0.38323353293413176
6.014,-0.2874251497005988
6.016,-0.1497005988023952
6.018,-0.023952095808383235
6.0200000000000005,0.10778443113772455
6.022,0.17964071856287425
6.024,0.23952095808383234
6.026,0.24550898203592814
6.0280000000000005,0.2155688622754491
6.03,-0.07784431137724551
6.032,-0.5748502994011976
6.034,-1.18562874251497
6.0360000000000005,-1.748502994011976
6.038,-1.9760479041916168
6.04,-2.029940119760479
6.042,-2.059880239520958
6.0440000000000005,-2.095808383233533
6.046,-2.065868263473054
6.048,-2.065868263473054
6.05,-2.0419161676646707
6.0520000000000005,-1.9820359281437125
6.054,-1.8203592814371257
6.056,-1.7964071856287425
6.058,-1.6646706586826348
6.0600000000000005,-1.5449101796407185
6.062,-1.4970059880239521
6.064,-1.401197604790419
6.066,-1.3353293413173652
6.0680000000000005,-1.2395209580838322
6.07,-1.1497005988023952
6.072,-1.0059880239520957
6.074,-0.9401197604790419
6.0760000000000005,-0.8862275449101796
6.078,-0.8383233532934131
6.08,-0.8083832335329342
6.082,-0.7964071856287425
6.0840000000000005,-0.7365269461077845
6.086,-0.6766467065868264
6.088,-0.6047904191616766
6.09,-0.718562874251497
6.0920000000000005,-0.7485029940119761
6.094,-0.6706586826347305
6.096,-0.6167664670658682
6.098,-0.6467065868263473
6.1000000000000005,-0.5868263473053892
6.102,-0.6047904191616766
6.104,-0.6467065868263473
6.106,-0.6706586826347305
6.1080000000000005,-0.6347305389221557
6.11,-0.6047904191616766
6.112,-0.6167664670658682
6.114,-0.5988023952095808
6.1160000000000005,-0.6047904191616766
6.118,-0.6407185628742516
6.12,-0.5868263473053892
6.122,-0.5029940119760479
6.1240000000000006,-0.5329341317365269
6.126,-0.5748502994011976
6.128,-0.562874251497006
6.13,-0.5988023952095808
6.132000000000001,-0.5808383233532934
6.134,-0.5029940119760479
6.136,-0.5568862275449101
6.138,-0.5808383233532934
6.140000000000001,-0.5329341317365269
6.142,-0.5149700598802395
6.144,-0.5269461077844312
6.146,-0.5449101796407185
6.148,-0.5209580838323353
6.15,-0.49101796407185627
6.152,-0.4491017964071856
6.154,-0.48502994011976047
6.156,-0.49700598802395207
6.158,-0.48502994011976047
6.16,-0.4491017964071856
6.162,-0.4251497005988024
6.164,-0.41916167664670656
6.166,-0.47305389221556887
6.168,-0.3712574850299401
6.17,-0.4311377245508982
6.172,-0.49101796407185627
6.174,-0.4550898203592814
6.176,-0.39520958083832336
6.178,-0.3413173652694611
6.18,-0.2874251497005988
6.182,-0.2934131736526946
6.184,-0.32335329341317365
6.186,-0.20958083832335328
6.188,-0.19760479041916168
6.19,-0.23952095808383234
6.192,-0.25149700598802394
6.194,-0.2275449101796407
6.196,-0.2694610778443114
6.198,-0.23952095808383234
6.2,-0.18562874251497005
6.202,-0.1377245508982036
6.204,0.017964071856287425
6.206,-0.0658682634730539
6.208,-0.10179640718562874
6.21,-0.03592814371257485
6.212,0.09580838323353294
6.214,-0.023952095808383235
6.216,-0.023952095808383235
6.218,0.03592814371257485
6.22,-0.017964071856287425
6.222,-0.07784431137724551
6.224,-0.08383233532934131
6.226,-0.029940119760479042
6.228,-0.011976047904191617
6.23,-0.059880239520958084
6.232,-0.029940119760479042
6.234,-0.029940119760479042
6.236,0.017964071856287425
6.238,0.04790419161676647
6.24,0.005988023952095809
6.242,-0.04790419161676647
6.244,-0.059880239520958084
6.246,-0.1377245508982036
6.248,-0.1437125748502994
6.25,-0.12574850299401197
6.252,-0.1437125748502994
6.2540000000000004,-0.1377245508982036
6.256,-0.20359281437125748
6.258,-0.2694610778443114
6.26,-0.23952095808383234
6.2620000000000005,-0.2994011976047904
6.264,-0.40718562874251496
6.266,-0.4311377245508982
6.268,-0.46107784431137727
6.2700000000000005,-0.46706586826347307
6.272,-0.48502994011976047
6.274,-0.5209580838323353
6.276,-0.49700598802395207
6.2780000000000005,-0.5209580838323353
6.28,-0.5568862275449101
6.282,-0.562874251497006
6.284,-0.5389221556886228
6.2860000000000005,-0.5868263473053892
6.288,-0.6646706586826348
6.29,-0.6107784431137725
6.292,-0.6946107784431138
6.2940000000000005,-0.5568862275449101
6.296,-0.5688622754491018
6.298,-0.6167664670658682
6.3,-0.6287425149700598
6.3020000000000005,-0.6646706586826348
6.304,-0.6946107784431138
6.306,-0.7245508982035929
6.308,-0.6526946107784432
6.3100000000000005,-0.6467065868263473
6.312,-0.6407185628742516
6.314,-0.6287425149700598
6.316,-0.6407185628742516
6.3180000000000005,-0.6646706586826348
6.32,-0.7125748502994012
6.322,-0.6706586826347305
6.324,-0.6766467065868264
6.3260000000000005,-0.6646706586826348
6.328,-0.6526946107784432
6.33,-0.6287425149700598
6.332,-0.6946107784431138
6.3340000000000005,-0.6407185628742516
6.336,-0.6107784431137725
6.338,-0.6646706586826348
6.34,-0.7065868263473054
6.3420000000000005,-0.688622754491018
6.344,-0.718562874251497
6.346,-0.7125748502994012
6.348,-0.6467065868263473
6.3500000000000005,-0.6407185628742516
6.352,-0.6826347305389222
6.354,-0.6826347305389222
6.356,-0.6646706586826348
6.3580000000000005,-0.6946107784431138
6.36,-0.718562874251497
6.362,-0.7125748502994012
6.364,-0.6946107784431138
6.3660000000000005,-0.6946107784431138
6.368,-0.6287425149700598
6.37,-0.6706586826347305
6.372,-0.6407185628742516
6.3740000000000006,-0.6706586826347305
6.376,-0.6526946107784432
6.378,-0.6107784431137725
6.38,-0.5988023952095808
6.382000000000001,-0.6646706586826348
6.384,-0.6946107784431138
6.386,-0.688622754491018
6.388,-0.688622754491018
6.390000000000001,-0.7485029940119761
6.392,-0.6526946107784432
6.394,-0.6526946107784432
6.396,-0.6467065868263473
6.398000000000001,-0.5808383233532934
6.4,-0.6347305389221557
6.402,-0.6407185628742516
6.404,-0.5988023952095808
6.406,-0.5808383233532934
6.408,-0.6107784431137725
6.41,-0.6047904191616766
6.412,-0.5748502994011976
6.414,-0.5568862275449101
6.416,-0.5868263473053892
6.418,-0.5269461077844312
6.42,-0.5209580838323353
6.422,-0.5508982035928144
6.424,-0.562874251497006
6.426,-0.5808383233532934
6.428,-0.6167664670658682
6.43,-0.5868263473053892
6.432,-0.6107784431137725
6.434,-0.5868263473053892
6.436,-0.6167664670658682
6.438,-0.592814371257485
6.44,-0.6107784431137725
6.442,-0.6407185628742516
6.444,-0.5808383233532934
6.446,-0.592814371257485
6.448,-0.5748502994011976
6.45,-0.562874251497006
6.452,-0.6107784431137725
6.454,-0.5389221556886228
6.456,-0.5149700598802395
6.458,-0.46706586826347307
6.46,-0.47904191616766467
6.462,-0.5089820359281437
6.464,-0.5029940119760479
6.466,-0.46706586826347307
6.468,-0.48502994011976047
6.47,-0.5808383233532934
6.472,-0.562874251497006
6.474,-0.47904191616766467
6.476,-0.562874251497006
6.478,-0.5269461077844312
6.48,-0.5029940119760479
6.482,-0.5089820359281437
6.484,-0.5868263473053892
6.486,-0.5868263473053892
6.488,-0.562874251497006
6.49,-0.5389221556886228
6.492,-0.6047904191616766
6.494,-0.6526946107784432
6.496,-0.5988023952095808
6.498,-0.5988023952095808
6.5,-0.6227544910179641
6.502,-0.6227544910179641
6.5040000000000004,-0.6347305389221557
6.506,-0.6287425149700598
6.508,-0.6526946107784432
6.51,-0.6287425149700598
6.5120000000000005,-0.6526946107784432
6.514,-0.6526946107784432
6.516,-0.5868263473053892
6.518,-0.592814371257485
6.5200000000000005,-0.6347305389221557
6.522,-0.6287425149700598
6.524,-0.6467065868263473
6.526,-0.6227544910179641
6.5280000000000005,-0.6287425149700598
6.53,-0.6167664670658682
6.532,-0.718562874251497
6.534,-0.6287425149700598
6.5360000000000005,-0.592814371257485
6.538,-0.49700598802395207
6.54,-0.6107784431137725
6.542,-0.6526946107784432
6.5440000000000005,-0.6167664670658682
6.546,-0.6227544910179641
6.548,-0.6646706586826348
6.55,-0.6167664670658682
6.5520000000000005,-0.6526946107784432
6.554,-0.7005988023952096
6.556,-0.6407185628742516
6.558,-0.5808383233532934
6.5600000000000005,-0.5868263473053892
6.562,-0.6167664670658682
6.564,-0.6526946107784432
6.566,-0.6586826347305389
6.5680000000000005,-0.6467065868263473
6.57,-0.6826347305389222
6.572,-0.5988023952095808
6.574,-0.6047904191616766
6.5760000000000005,-0.5868263473053892
6.578,-0.6047904191616766
6.58,-0.6047904191616766
6.582,-0.5269461077844312
6.5840000000000005,-0.49101796407185627
6.586,-0.49101796407185627
6.588,-0.4491017964071856
6.59,-0.39520958083832336
6.5920000000000005,-0.24550898203592814
6.594,-0.16167664670658682
6.596,0.029940119760479042
6.598,0.1377245508982036
6.6000000000000005,0.15568862275449102
6.602,0.17964071856287425
6.604,0.24550898203592814
6.606,0.24550898203592814
6.6080000000000005,0.24550898203592814
6.61,0.1377245508982036
6.612,-0.41916167664670656
6.614,-1.0778443113772456
6.6160000000000005,-1.6107784431137724
6.618,-1.8083832335329342
6.62,-1.874251497005988
6.622,-1.9760479041916168
6.6240000000000006,-1.970059880239521
6.626,-1.9461077844311376
6.628,-1.9520958083832336
6.63,-1.910179640718563
6.632000000000001,-1.910179640718563
6.634,-1.8383233532934131
6.636,-1.7664670658682635
6.638,-1.5808383233532934
6.640000000000001,-1.5149700598802396
6.642,-1.3952095808383234
6.644,-1.3293413173652695
6.646,-1.2754491017964071
6.648000000000001,-1.1616766467065869
6.65,-1.0838323353293413
6.652,-0.9580838323353293
6.654,-0.8083832335329342
6.656000000000001,-0.7604790419161677
6.658,-0.7305389221556886
6.66,-0.6946107784431138
6.662,-0.6826347305389222
6.664,-0.6287425149700598
6.666,-0.5868263473053892
6.668,-0.592814371257485
6.67,-0.5808383233532934
6.672,-0.5149700598802395
6.674,-0.5029940119760479
6.676,-0.5269461077844312
6.678,-0.5029940119760479
6.68,-0.4550898203592814
6.682,-0.49101796407185627
6.684,-0.5149700598802395
6.686,-0.46107784431137727
6.688,-0.5269461077844312
6.69,-0.4550898203592814
6.692,-0.4311377245508982
6.694,-0.46107784431137727
6.696,-0.47904191616766467
6.698,-0.437125748502994
6.7,-0.46107784431137727
6.702,-0.41916167664670656
6.704,-0.4550898203592814
6.706,-0.49700598802395207
6.708,-0.41317365269461076
6.71,-0.39520958083832336
6.712,-0.40718562874251496
6.714,-0.39520958083832336
6.716,-0.3413173652694611
6.718,-0.3652694610778443
6.72,-0.40718562874251496
6.722,-0.38323353293413176
6.724,-0.33532934131736525
6.726,-0.3413173652694611
6.728,-0.3532934131736527
6.73,-0.3772455089820359
6.732,-0.3473053892215569
6.734,-0.31137724550898205
6.736,-0.3473053892215569
6.738,-0.3532934131736527
6.74,-0.30538922155688625
6.742,-0.32934131736526945
6.744,-0.33532934131736525
6.746,-0.2994011976047904
6.748,-0.25149700598802394
6.75,-0.2874251497005988
6.752,-0.25748502994011974
6.7540000000000004,-0.2155688622754491
6.756,-0.2215568862275449
6.758,-0.2275449101796407
6.76,-0.19161676646706588
6.7620000000000005,-0.19161676646706588
6.764,-0.17964071856287425
6.766,-0.15568862275449102
6.768,-0.1377245508982036
6.7700000000000005,-0.04790419161676647
6.772,-0.005988023952095809
6.774,0.011976047904191617
6.776,-0.041916167664670656
6.7780000000000005,0.03592814371257485
6.78,0.08982035928143713
6.782,0.0
6.784,0.011976047904191617
6.7860000000000005,0.011976047904191617
6.788,0.12574850299401197
6.79,0.11377245508982035
6.792,0.08982035928143713
6.7940000000000005,0.09580838323353294
6.796,0.1377245508982036
6.798,0.1497005988023952
6.8,0.16766467065868262
6.8020000000000005,0.1497005988023952
6.804,0.18562874251497005
6.806,0.16766467065868262
6.808,0.2215568862275449
6.8100000000000005,0.20359281437125748
6.812,0.1317365269461078
6.814,0.15568862275449102
6.816,0.19161676646706588
6.8180000000000005,0.18562874251497005
6.82,0.11976047904191617
6.822,0.023952095808383235
6.824,0.08383233532934131
6.8260000000000005,0.1497005988023952
6.828,0.08383233532934131
6.83,0.04790419161676647
6.832,0.005988023952095809
6.8340000000000005,-0.08982035928143713
6.836,-0.10179640718562874
6.838,-0.1317365269461078
6.84,-0.1377245508982036
6.8420000000000005,-0.1497005988023952
6.844,-0.2155688622754491
6.846,-0.25748502994011974
6.848,-0.2694610778443114
6.8500000000000005,-0.281437125748503
6.852,-0.30538922155688625
6.854,-0.3473053892215569
6.856,-0.41916167664670656
6.8580000000000005,-0.3772455089820359
6.86,-0.32335329341317365
6.862,-0.3652694610778443
6.864,-0.4431137724550898
6.8660000000000005,-0.4251497005988024
6.868,-0.4491017964071856
6.87,-0.46706586826347307
6.872,-0.47305389221556887
6.8740000000000006,-0.4550898203592814
6.876,-0.46706586826347307
6.878,-0.5329341317365269
6.88,-0.49101796407185627
6.882000000000001,-0.5748502994011976
6.884,-0.46706586826347307
6.886,-0.5029940119760479
6.888,-0.5748502994011976
6.890000000000001,-0.5329341317365269
6.892,-0.5389221556886228
6.894,-0.5329341317365269
6.896,-0.5209580838323353
6.898000000000001,-0.5329341317365269
6.9,-0.562874251497006
6.902,-0.5389221556886228
6.904,-0.5508982035928144
6.906000000000001,-0.5269461077844312
6.908,-0.5089820359281437
6.91,-0.46107784431137727
6.912,-0.49101796407185627
6.914,-0.4491017964071856
6.916,-0.48502994011976047
6.918,-0.5209580838323353
6.92,-0.6047904191616766
6.922,-0.5868263473053892
6.924,-0.5269461077844312
6.926,-0.5508982035928144
6.928,-0.5508982035928144
6.93,-0.5209580838323353
6.932,-0.5269461077844312
6.934,-0.5209580838323353
6.936,-0.49101796407185627
6.938,-0.5149700598802395
6.94,-0.5568862275449101
6.942,-0.5748502994011976
6.944,-0.5568862275449101
6.946,-0.47904191616766467
6.948,-0.562874251497006
6.95,-0.5449101796407185
6.952,-0.5508982035928144
6.954,-0.5389221556886228
6.956,-0.562874251497006
6.958,-0.5688622754491018
6.96,-0.49101796407185627
6.962,-0.5269461077844312
6.964,-0.5209580838323353
6.966,-0.5029940119760479
6.968,-0.49101796407185627
6.97,-0.5269461077844312
6.972,-0.5508982035928144
6.974,-0.5149700598802395
6.976,-0.46107784431137727
6.978,-0.4311377245508982
6.98,-0.48502994011976047
6.982,-0.5269461077844312
6.984,-0.49700598802395207
6.986,-0.46107784431137727
6.988,-0.47904191616766467
6.99,-0.47904191616766467
6.992,-0.49700598802395207
6.994,-0.46706586826347307
6.996,-0.4491017964071856
6.998,-0.5149700598802395
7.0,-0.5389221556886228
7.002,-0.5149700598802395
7.0040000000000004,-0.47305389221556887
7.006,-0.46107784431137727
7.008,-0.40718562874251496
7.01,-0.38323353293413176
7.0120000000000005,-0.3532934131736527
7.014,-0.46706586826347307
7.016,-0.4311377245508982
7.018,-0.40718562874251496
7.0200000000000005,-0.41317365269461076
7.022,-0.41916167664670656
7.024,-0.46706586826347307
7.026,-0.46706586826347307
7.0280000000000005,-0.46706586826347307
7.03,-0.40119760479041916
7.032,-0.41317365269461076
7.034,-0.4550898203592814
7.0360000000000005,-0.48502994011976047
7.038,-0.5389221556886228
7.04,-0.5449101796407185
7.042,-0.40119760479041916
7.0440000000000005,-0.46107784431137727
7.046,-0.3652694610778443
7.048,-0.41317365269461076
7.05,-0.4251497005988024
7.0520000000000005,-0.41916167664670656
7.054,-0.41317365269461076
7.056,-0.3473053892215569
7.058,-0.4311377245508982
7.0600000000000005,-0.4251497005988024
7.062,-0.4311377245508982
7.064,-0.4431137724550898
7.066,-0.46706586826347307
7.0680000000000005,-0.49101796407185627
7.07,-0.46706586826347307
7.072,-0.49101796407185627
7.074,-0.49700598802395207
7.0760000000000005,-0.5089820359281437
7.078,-0.5029940119760479
7.08,-0.5449101796407185
7.082,-0.47904191616766467
7.0840000000000005,-0.5329341317365269
7.086,-0.5209580838323353
7.088,-0.47904191616766467
7.09,-0.5149700598802395
7.0920000000000005,-0.49101796407185627
7.094,-0.5269461077844312
7.096,-0.5508982035928144
7.098,-0.5269461077844312
7.1000000000000005,-0.5808383233532934
7.102,-0.5748502994011976
7.104,-0.5089820359281437
7.106,-0.562874251497006
7.1080000000000005,-0.562874251497006
7.11,-0.5149700598802395
7.112,-0.5568862275449101
7.114,-0.5269461077844312
7.1160000000000005,-0.5449101796407185
7.118,-0.5748502994011976
7.12,-0.5748502994011976
7.122,-0.47305389221556887
7.1240000000000006,-0.5389221556886228
7.126,-0.5149700598802395
7.128,-0.5209580838323353
7.13,-0.5149700598802395
7.132000000000001,-0.5389221556886228
7.134,-0.5568862275449101
7.136,-0.5568862275449101
7.138,-0.6047904191616766
7.140000000000001,-0.5508982035928144
7.142,-0.5389221556886228
7.144,-0.5449101796407185
7.146,-0.5688622754491018
7.148000000000001,-0.5508982035928144
7.15,-0.5508982035928144
7.152,-0.4550898203592814
7.154,-0.46107784431137727
7.156000000000001,-0.5089820359281437
7.158,-0.437125748502994
7.16,-0.3772455089820359
7.162,-0.3413173652694611
7.164000000000001,-0.32335329341317365
7.166,-0.2634730538922156
7.168,-0.19161676646706588
7.17,-0.0658682634730539
7.172,0.10179640718562874
7.174,0.16167664670658682
7.176,0.25748502994011974
7.178,0.32335329341317365
7.18,0.32934131736526945
7.182,0.3473053892215569
7.184,0.3712574850299401
7.186,0.16167664670658682
7.188,-0.3532934131736527
7.19,-1.0419161676646707
7.192,-1.4251497005988023
7.194,-1.6766467065868262
7.196,-1.81437125748503
7.198,-1.8502994011976048
7.2,-1.8622754491017963
7.202,-1.8682634730538923
7.204,-1.8562874251497006
7.206,-1.8083832335329342
7.208,-1.7305389221556886
7.21,-1.6826347305389222
7.212,-1.6167664670658684
7.214,-1.4610778443113772
7.216,-1.3353293413173652
7.218,-1.1916167664670658
7.22,-1.2395209580838322
7.222,-1.1796407185628743
7.224,-1.0059880239520957
7.226,-0.7964071856287425
7.228,-0.8802395209580839
7.23,-0.8562874251497006
7.232,-0.7604790419161677
7.234,-0.6287425149700598
7.236,-0.6826347305389222
7.238,-0.5808383233532934
7.24,-0.46107784431137727
7.242,-0.562874251497006
7.244,-0.38922155688622756
7.246,-0.3592814371257485
7.248,-0.4311377245508982
7.25,-0.4491017964071856
7.252,-0.48502994011976047
7.2540000000000004,-0.4251497005988024
7.256,-0.4491017964071856
7.258,-0.4311377245508982
7.26,-0.4251497005988024
7.2620000000000005,-0.39520958083832336
7.264,-0.4251497005988024
7.266,-0.4311377245508982
7.268,-0.41317365269461076
7.2700000000000005,-0.41317365269461076
7.272,-0.41317365269461076
7.274,-0.4311377245508982
7.276,-0.38323353293413176
7.2780000000000005,-0.3592814371257485
7.28,-0.3772455089820359
7.282,-0.437125748502994
7.284,-0.3473053892215569
7.2860000000000005,-0.31736526946107785
7.288,-0.32335329341317365
7.29,-0.3592814371257485
7.292,-0.3652694610778443
7.2940000000000005,-0.2934131736526946
7.296,-0.3772455089820359
7.298,-0.33532934131736525
7.3,-0.31736526946107785
7.3020000000000005,-0.2874251497005988
7.304,-0.30538922155688625
7.306,-0.281437125748503
7.308,-0.2155688622754491
7.3100000000000005,-0.25149700598802394
7.312,-0.2694610778443114
7.314,-0.2275449101796407
7.316,-0.24550898203592814
7.3180000000000005,-0.30538922155688625
7.32,-0.33532934131736525
7.322,-0.18562874251497005
7.324,-0.2694610778443114
7.3260000000000005,-0.2155688622754491
7.328,-0.19760479041916168
7.33,-0.2215568862275449
7.332,-0.20359281437125748
7.3340000000000005,-0.17365269461077845
7.336,-0.16167664670658682
7.338,-0.20958083832335328
7.34,-0.1497005988023952
7.3420000000000005,-0.11377245508982035
7.344,-0.10778443113772455
7.346,-0.07784431137724551
7.348,-0.05389221556886228
7.3500000000000005,0.0
7.352,-0.017964071856287425
7.354,0.017964071856287425
7.356,0.0718562874251497
7.3580000000000005,0.08383233532934131
7.36,0.11976047904191617
7.362,0.0658682634730539
7.364,0.08383233532934131
7.3660000000000005,0.0718562874251497
7.368,0.17964071856287425
7.37,0.1317365269461078
7.372,0.16766467065868262
7.3740000000000006,0.11377245508982035
7.376,0.12574850299401197
7.378,0.2215568862275449
7.38,0.20958083832335328
7.382000000000001,0.19161676646706588
7.384,0.20958083832335328
7.386,0.2155688622754491
7.388,0.2275449101796407
7.390000000000001,0.19760479041916168
7.392,0.1377245508982036
7.394,0.09580838323353294
7.396,0.12574850299401197
7.398000000000001,0.10778443113772455
7.4,0.0658682634730539
7.402,0.059880239520958084
7.404,0.05389221556886228
7.406000000000001,0.023952095808383235
7.408,0.005988023952095809
7.41,-0.023952095808383235
7.412,-0.09580838323353294
7.414000000000001,-0.1437125748502994
7.416,-0.09580838323353294
7.418,-0.2155688622754491
7.42,-0.2275449101796407
7.422000000000001,-0.281437125748503
7.424,-0.30538922155688625
7.426,-0.32934131736526945
7.428,-0.2874251497005988
7.43,-0.2934131736526946
7.432,-0.2994011976047904
7.434,-0.32934131736526945
7.436,-0.38922155688622756
7.438,-0.40718562874251496
7.44,-0.38922155688622756
7.442,-0.4251497005988024
7.444,-0.4431137724550898
7.446,-0.40718562874251496
7.448,-0.3592814371257485
7.45,-0.4491017964071856
7.452,-0.4311377245508982
7.454,-0.40119760479041916
7.456,-0.4311377245508982
7.458,-0.46107784431137727
7.46,-0.47305389221556887
7.462,-0.4491017964071856
7.464,-0.49700598802395207
7.466,-0.4550898203592814
7.468,-0.4431137724550898
7.47,-0.5029940119760479
7.472,-0.5508982035928144
7.474,-0.47904191616766467
7.476,-0.5329341317365269
7.478,-0.47904191616766467
7.48,-0.5508982035928144
7.482,-0.5449101796407185
7.484,-0.5389221556886228
7.486,-0.47305389221556887
7.488,-0.48502994011976047
7.49,-0.47904191616766467
7.492,-0.49101796407185627
7.494,-0.49700598802395207
7.496,-0.5029940119760479
7.498,-0.4431137724550898
7.5,-0.46107784431137727
7.502,-0.4550898203592814
7.5040000000000004,-0.49101796407185627
7.506,-0.4550898203592814
7.508,-0.437125748502994
7.51,-0.5329341317365269
7.5120000000000005,-0.5389221556886228
7.514,-0.5988023952095808
7.516,-0.5688622754491018
7.518,-0.5269461077844312
7.5200000000000005,-0.4550898203592814
7.522,-0.4431137724550898
7.524,-0.4251497005988024
7.526,-0.5089820359281437
7.5280000000000005,-0.5029940119760479
7.53,-0.46706586826347307
7.532,-0.49101796407185627
7.534,-0.49101796407185627
7.5360000000000005,-0.48502994011976047
7.538,-0.49101796407185627
7.54,-0.49101796407185627
7.542,-0.49101796407185627
7.5440000000000005,-0.46107784431137727
7.546,-0.48502994011976047
7.548,-0.46107784431137727
7.55,-0.48502994011976047
7.5520000000000005,-0.47904191616766467
7.554,-0.5329341317365269
7.556,-0.4550898203592814
7.558,-0.40718562874251496
7.5600000000000005,-0.4431137724550898
7.562,-0.5149700598802395
7.564,-0.4251497005988024
7.566,-0.38922155688622756
7.5680000000000005,-0.47904191616766467
7.57,-0.4491017964071856
7.572,-0.437125748502994
7.574,-0.4251497005988024
7.5760000000000005,-0.4431137724550898
7.578,-0.49101796407185627
7.58,-0.48502994011976047
7.582,-0.4491017964071856
7.5840000000000005,-0.2874251497005988
7.586,-0.31137724550898205
7.588,-0.437125748502994
7.59,-0.4311377245508982
7.5920000000000005,-0.41916167664670656
7.594,-0.4431137724550898
7.596,-0.47904191616766467
7.598,-0.4491017964071856
7.6000000000000005,-0.40718562874251496
7.602,-0.3592814371257485
7.604,-0.40718562874251496
7.606,-0.3473053892215569
7.6080000000000005,-0.3712574850299401
7.61,-0.31736526946107785
7.612,-0.3532934131736527
7.614,-0.4491017964071856
7.6160000000000005,-0.41916167664670656
7.618,-0.38922155688622756
7.62,-0.41916167664670656
7.622,-0.46706586826347307
7.6240000000000006,-0.41317365269461076
7.626,-0.40119760479041916
7.628,-0.3712574850299401
7.63,-0.3652694610778443
7.632000000000001,-0.3473053892215569
7.634,-0.32934131736526945
7.636,-0.3652694610778443
7.638,-0.3413173652694611
7.640000000000001,-0.33532934131736525
7.642,-0.38922155688622756
7.644,-0.3473053892215569
7.646,-0.48502994011976047
7.648000000000001,-0.48502994011976047
7.65,-0.4431137724550898
7.652,-0.47305389221556887
7.654,-0.5568862275449101
7.656000000000001,-0.48502994011976047
7.658,-0.49101796407185627
7.66,-0.49101796407185627
7.662,-0.46706586826347307
7.664000000000001,-0.47904191616766467
7.666,-0.49101796407185627
7.668,-0.5029940119760479
7.67,-0.46706586826347307
7.672000000000001,-0.5449101796407185
7.674,-0.5029940119760479
7.676,-0.40119760479041916
7.678,-0.46706586826347307
7.68,-0.49700598802395207
7.682,-0.5149700598802395
7.684,-0.5209580838323353
7.686,-0.47904191616766467
7.688,-0.5269461077844312
7.69,-0.49700598802395207
7.692,-0.5209580838323353
7.694,-0.47904191616766467
7.696,-0.5089820359281437
7.698,-0.562874251497006
7.7,-0.5029940119760479
7.702,-0.4550898203592814
7.704,-0.47305389221556887
7.706,-0.49700598802395207
7.708,-0.46107784431137727
7.71,-0.437125748502994
7.712,-0.4550898203592814
7.714,-0.5209580838323353
7.716,-0.5329341317365269
7.718,-0.5029940119760479
7.72,-0.48502994011976047
7.722,-0.46706586826347307
7.724,-0.5149700598802395
7.726,-0.49101796407185627
7.728,-0.47904191616766467
7.73,-0.46107784431137727
7.732,-0.4251497005988024
7.734,-0.41916167664670656
7.736,-0.3532934131736527
7.738,-0.41317365269461076
7.74,-0.3592814371257485
7.742,-0.3532934131736527
7.744,-0.281437125748503
7.746,-0.1497005988023952
7.748,0.08383233532934131
7.75,0.1377245508982036
7.752,0.23353293413173654
7.7540000000000004,0.32934131736526945
7.756,0.40718562874251496
7.758,0.41916167664670656
7.76,0.41317365269461076
7.7620000000000005,0.41317365269461076
7.764,0.10778443113772455
7.766,-0.3592814371257485
7.768,-1.0239520958083832
7.7700000000000005,-1.4910179640718564
7.772,-1.6407185628742516
7.774,-1.6347305389221556
7.776,-1.6047904191616766
7.7780000000000005,-1.718562874251497
7.78,-1.784431137724551
7.782,-1.8083832335329342
7.784,-1.7425149700598803
7.7860000000000005,-1.6467065868263473
7.788,-1.5209580838323353
7.79,-1.467065868263473
7.792,-1.401197604790419
7.7940000000000005,-1.1916167664670658
7.796,-1.1796407185628743
7.798,-1.0658682634730539
7.8,-0.9760479041916168
7.8020000000000005,-0.7904191616766467
7.804,-0.7245508982035929
7.806,-0.6706586826347305
7.808,-0.6586826347305389
7.8100000000000005,-0.6167664670658682
7.812,-0.5329341317365269
7.814,-0.5029940119760479
7.816,-0.47904191616766467
7.8180000000000005,-0.47904191616766467
7.82,-0.4431137724550898
7.822,-0.3712574850299401
7.824,-0.38922155688622756
7.8260000000000005,-0.40718562874251496
7.828,-0.3772455089820359
7.83,-0.4311377245508982
7.832,-0.38922155688622756
7.8340000000000005,-0.3712574850299401
7.836,-0.39520958083832336
7.838,-0.41317365269461076
7.84,-0.46107784431137727
7.8420000000000005,-0.38922155688622756
7.844,-0.281437125748503
7.846,-0.32335329341317365
7.848,-0.33532934131736525
7.8500000000000005,-0.2934131736526946
7.852,-0.32934131736526945
7.854,-0.32335329341317365
7.856,-0.2934131736526946
7.8580000000000005,-0.2994011976047904
7.86,-0.2994011976047904
7.862,-0.2934131736526946
7.864,-0.31137724550898205
7.8660000000000005,-0.33532934131736525
7.868,-0.32934131736526945
7.87,-0.2754491017964072
7.872,-0.25748502994011974
7.8740000000000006,-0.23952095808383234
7.876,-0.20359281437125748
7.878,-0.2874251497005988
7.88,-0.32335329341317365
7.882000000000001,-0.2754491017964072
7.884,-0.20958083832335328
7.886,-0.23353293413173654
7.888,-0.17365269461077845
7.890000000000001,-0.20359281437125748
7.892,-0.19161676646706588
7.894,-0.20359281437125748
7.896,-0.17964071856287425
7.898000000000001,-0.18562874251497005
7.9,-0.16766467065868262
7.902,-0.15568862275449102
7.904,-0.1497005988023952
7.906000000000001,-0.1317365269461078
7.908,-0.16167664670658682
7.91,-0.19760479041916168
7.912,-0.1437125748502994
7.914000000000001,-0.05389221556886228
7.916,-0.1377245508982036
7.918,-0.08383233532934131
7.92,0.011976047904191617
7.922000000000001,0.03592814371257485
7.924,0.03592814371257485
7.926,0.0658682634730539
7.928,0.07784431137724551
7.930000000000001,0.08383233532934131
7.932,0.11377245508982035
7.934,0.16167664670658682
7.936,0.17365269461077845
7.938,0.16167664670658682
7.94,0.1437125748502994
7.942,0.1317365269461078
7.944,0.19161676646706588
7.946,0.10778443113772455
7.948,0.15568862275449102
7.95,0.2994011976047904
7.952,0.23952095808383234
7.954,0.2754491017964072
7.956,0.281437125748503
7.958,0.25149700598802394
7.96,0.23952095808383234
7.962,0.2754491017964072
7.964,0.19760479041916168
7.966,0.23952095808383234
7.968,0.2754491017964072
7.97,0.2754491017964072
7.972,0.19760479041916168
7.974,0.2215568862275449
7.976,0.20359281437125748
7.978,0.17964071856287425
7.98,0.16167664670658682
7.982,0.08383233532934131
7.984,0.04790419161676647
7.986,0.029940119760479042
7.988,0.011976047904191617
7.99,-0.017964071856287425
7.992,-0.07784431137724551
7.994,-0.11976047904191617
7.996,-0.11377245508982035
7.998,-0.08383233532934131
8.0,-0.08383233532934131
8.002,-0.15568862275449102
8.004,-0.19760479041916168
8.006,-0.2634730538922156
8.008000000000001,-0.25149700598802394
8.01,-0.31137724550898205
8.012,-0.31736526946107785
8.014,-0.32335329341317365
8.016,-0.32934131736526945
8.018,-0.2934131736526946
8.02,-0.32335329341317365
8.022,-0.2874251497005988
8.024000000000001,-0.3473053892215569
8.026,-0.32934131736526945
8.028,-0.3473053892215569
8.03,-0.38323353293413176
8.032,-0.3413173652694611
8.034,-0.3413173652694611
8.036,-0.41916167664670656
8.038,-0.39520958083832336
8.040000000000001,-0.46706586826347307
8.042,-0.40119760479041916
8.044,-0.3712574850299401
8.046,-0.40119760479041916
8.048,-0.40119760479041916
8.05,-0.4251497005988024
8.052,-0.4491017964071856
8.054,-0.40119760479041916
8.056000000000001,-0.39520958083832336
8.058,-0.41317365269461076
8.06,-0.38323353293413176
8.062,-0.4251497005988024
8.064,-0.38922155688622756
8.066,-0.41317365269461076
8.068,-0.40718562874251496
8.07,-0.4431137724550898
8.072000000000001,-0.4550898203592814
8.074,-0.4251497005988024
8.076,-0.4550898203592814
8.078,-0.49700598802395207
8.08,-0.47305389221556887
8.082,-0.5149700598802395
8.084,-0.46706586826347307
8.086,-0.39520958083832336
8.088000000000001,-0.39520958083832336
8.09,-0.3772455089820359
8.092,-0.39520958083832336
8.094,-0.4311377245508982
8.096,-0.41317365269461076
8.098,-0.41916167664670656
8.1,-0.4550898203592814
8.102,-0.41317365269461076
8.104000000000001,-0.40119760479041916
8.106,-0.3772455089820359
8.108,-0.3772455089820359
8.11,-0.40119760479041916
8.112,-0.38922155688622756
8.114,-0.437125748502994
8.116,-0.39520958083832336
8.118,-0.40119760479041916
8.120000000000001,-0.4311377245508982
8.122,-0.38323353293413176
8.124,-0.3712574850299401
8.126,-0.3712574850299401
8.128,-0.4251497005988024
8.13,-0.39520958083832336
8.132,-0.39520958083832336
8.134,-0.38922155688622756
8.136000000000001,-0.4251497005988024
8.138,-0.41916167664670656
8.14,-0.3772455089820359
8.142,-0.39520958083832336
8.144,-0.3532934131736527
8.146,-0.2994011976047904
8.148,-0.33532934131736525
8.15,-0.437125748502994
8.152000000000001,-0.3712574850299401
8.154,-0.3772455089820359
8.156,-0.38922155688622756
8.158,-0.3712574850299401
8.16,-0.3652694610778443
8.162,-0.3592814371257485
8.164,-0.38922155688622756
8.166,-0.38922155688622756
8.168000000000001,-0.3652694610778443
8.17,-0.3772455089820359
8.172,-0.3712574850299401
8.174,-0.31736526946107785
8.176,-0.31736526946107785
8.178,-0.3473053892215569
8.18,-0.33532934131736525
8.182,-0.32335329341317365
8.184000000000001,-0.33532934131736525
8.186,-0.32335329341317365
8.188,-0.31736526946107785
8.19,-0.2634730538922156
8.192,-0.25748502994011974
8.194,-0.25748502994011974
8.196,-0.2694610778443114
8.198,-0.2934131736526946
8.2,-0.2694610778443114
8.202,-0.32934131736526945
8.204,-0.32934131736526945
8.206,-0.32934131736526945
8.208,-0.32934131736526945
8.21,-0.32934131736526945
8.212,-0.31736526946107785
8.214,-0.2994011976047904
8.216,-0.32335329341317365
8.218,-0.40119760479041916
8.22,-0.3652694610778443
8.222,-0.32335329341317365
8.224,-0.25748502994011974
8.226,-0.32335329341317365
8.228,-0.4251497005988024
8.23,-0.3772455089820359
8.232,-0.3592814371257485
8.234,-0.41916167664670656
8.236,-0.4431137724550898
8.238,-0.41916167664670656
8.24,-0.38922155688622756
8.242,-0.41317365269461076
8.244,-0.41317365269461076
8.246,-0.41317365269461076
8.248,-0.3592814371257485
8.25,-0.3712574850299401
8.252,-0.41916167664670656
8.254,-0.40119760479041916
8.256,-0.41916167664670656
8.258000000000001,-0.41317365269461076
8.26,-0.3652694610778443
8.262,-0.41916167664670656
8.264,-0.4491017964071856
8.266,-0.38323353293413176
8.268,-0.3772455089820359
8.27,-0.4550898203592814
8.272,-0.49101796407185627
8.274000000000001,-0.4550898203592814
8.276,-0.4251497005988024
8.278,-0.38922155688622756
8.28,-0.3772455089820359
8.282,-0.47904191616766467
8.284,-0.40119760479041916
8.286,-0.4311377245508982
8.288,-0.39520958083832336
8.290000000000001,-0.3592814371257485
8.292,-0.39520958083832336
8.294,-0.4431137724550898
8.296,-0.40718562874251496
8.298,-0.4431137724550898
8.3,-0.3592814371257485
8.302,-0.38922155688622756
8.304,-0.4311377245508982
8.306000000000001,-0.3772455089820359
8.308,-0.3772455089820359
8.31,-0.4251497005988024
8.312,-0.39520958083832336
8.314,-0.41916167664670656
8.316,-0.3473053892215569
8.318,-0.3473053892215569
8.32,-0.2754491017964072
8.322000000000001,-0.25748502994011974
8.324,-0.1437125748502994
8.326,-0.09580838323353294
8.328,0.05389221556886228
8.33,0.20359281437125748
8.332,0.281437125748503
8.334,0.40718562874251496
8.336,0.47305389221556887
8.338000000000001,0.5269461077844312
8.34,0.5449101796407185
8.342,0.6227544910179641
8.344,0.437125748502994
8.346,-0.07784431137724551
8.348,-0.6526946107784432
8.35,-1.311377245508982
8.352,-1.5209580838323353
8.354000000000001,-1.6766467065868262
8.356,-1.7245508982035929
8.358,-1.7125748502994012
8.36,-1.718562874251497
8.362,-1.688622754491018
8.364,-1.6467065868263473
8.366,-1.6287425149700598
8.368,-1.5029940119760479
8.370000000000001,-1.4311377245508983
8.372,-1.3652694610778444
8.374,-1.215568862275449
8.376,-1.125748502994012
8.378,-1.0538922155688624
8.38,-0.9281437125748503
8.382,-0.8203592814371258
8.384,-0.718562874251497
8.386000000000001,-0.6047904191616766
8.388,-0.5568862275449101
8.39,-0.4550898203592814
8.392,-0.47904191616766467
8.394,-0.5209580838323353
8.396,-0.49101796407185627
8.398,-0.46107784431137727
8.4,-0.41916167664670656
8.402000000000001,-0.32335329341317365
8.404,-0.2754491017964072
8.406,-0.2934131736526946
8.408,-0.32934131736526945
8.41,-0.2934131736526946
8.412,-0.31137724550898205
8.414,-0.2634730538922156
8.416,-0.25149700598802394
8.418000000000001,-0.281437125748503
8.42,-0.31137724550898205
8.422,-0.2874251497005988
8.424,-0.2874251497005988
8.426,-0.2634730538922156
8.428,-0.25149700598802394
8.43,-0.2155688622754491
8.432,-0.25149700598802394
8.434000000000001,-0.3532934131736527
8.436,-0.33532934131736525
8.438,-0.30538922155688625
8.44,-0.25748502994011974
8.442,-0.17365269461077845
8.444,-0.16167664670658682
8.446,-0.16766467065868262
8.448,-0.16766467065868262
8.45,-0.17365269461077845
8.452,-0.17964071856287425
8.454,-0.1437125748502994
8.456,-0.1317365269461078
8.458,-0.16766467065868262
8.46,-0.17365269461077845
8.462,-0.18562874251497005
8.464,-0.1497005988023952
8.466,-0.20359281437125748
8.468,-0.1377245508982036
8.47,-0.1437125748502994
8.472,-0.20958083832335328
8.474,-0.12574850299401197
8.476,-0.08982035928143713
8.478,-0.041916167664670656
8.48,-0.07784431137724551
8.482,-0.059880239520958084
8.484,-0.05389221556886228
8.486,-0.041916167664670656
8.488,-0.029940119760479042
8.49,-0.011976047904191617
8.492,0.0
8.494,-0.03592814371257485
8.496,0.017964071856287425
8.498,0.059880239520958084
8.5,0.0718562874251497
8.502,0.11377245508982035
8.504,0.08383233532934131
8.506,0.023952095808383235
8.508000000000001,0.12574850299401197
8.51,0.2215568862275449
8.512,0.17365269461077845
8.514,0.17964071856287425
8.516,0.16766467065868262
8.518,0.19760479041916168
8.52,0.2874251497005988
8.522,0.33532934131736525
8.524000000000001,0.32335329341317365
8.526,0.31137724550898205
8.528,0.32335329341317365
8.53,0.3532934131736527
8.532,0.33532934131736525
8.534,0.3652694610778443
8.536,0.2874251497005988
8.538,0.24550898203592814
8.540000000000001,0.32934131736526945
8.542,0.38323353293413176
8.544,0.30538922155688625
8.546,0.32335329341317365
8.548,0.3652694610778443
8.55,0.3652694610778443
8.552,0.3652694610778443
8.554,0.3592814371257485
8.556000000000001,0.30538922155688625
8.558,0.281437125748503
8.56,0.2694610778443114
8.562,0.2694610778443114
8.564,0.2215568862275449
8.566,0.16766467065868262
8.568,0.15568862275449102
8.57,0.08982035928143713
8.572000000000001,0.017964071856287425
8.574,-0.029940119760479042
8.576,0.023952095808383235
8.578,-0.11377245508982035
8.58,-0.10778443113772455
8.582,0.005988023952095809
8.584,-0.10778443113772455
8.586,-0.1437125748502994
8.588000000000001,-0.08982035928143713
8.59,-0.20359281437125748
8.592,-0.2155688622754491
8.594,-0.18562874251497005
8.596,-0.20958083832335328
8.598,-0.23353293413173654
8.6,-0.2754491017964072
8.602,-0.2754491017964072
8.604000000000001,-0.2994011976047904
8.606,-0.25748502994011974
8.608,-0.2874251497005988
8.61,-0.31736526946107785
8.612,-0.32335329341317365
8.614,-0.32934131736526945
8.616,-0.3772455089820359
8.618,-0.3413173652694611
8.620000000000001,-0.32335329341317365
8.622,-0.2874251497005988
8.624,-0.2934131736526946
8.626,-0.31736526946107785
8.628,-0.2994011976047904
8.63,-0.32335329341317365
8.632,-0.32934131736526945
8.634,-0.30538922155688625
8.636000000000001,-0.32934131736526945
8.638,-0.3592814371257485
8.64,-0.41317365269461076
8.642,-0.2874251497005988
8.644,-0.25149700598802394
8.646,-0.3413173652694611
8.648,-0.38922155688622756
8.65,-0.41916167664670656
8.652000000000001,-0.3712574850299401
8.654,-0.3532934131736527
8.656,-0.3592814371257485
8.658,-0.3413173652694611
8.66,-0.3712574850299401
8.662,-0.3473053892215569
8.664,-0.32335329341317365
8.666,-0.3712574850299401
8.668000000000001,-0.3712574850299401
8.67,-0.3652694610778443
8.672,-0.3592814371257485
8.674,-0.3532934131736527
8.676,-0.32934131736526945
8.678,-0.32934131736526945
8.68,-0.2694610778443114
8.682,-0.2994011976047904
8.684000000000001,-0.3413173652694611
8.686,-0.30538922155688625
8.688,-0.32934131736526945
8.69,-0.2874251497005988
8.692,-0.3532934131736527
8.694,-0.32934131736526945
8.696,-0.32335329341317365
8.698,-0.3772455089820359
8.700000000000001,-0.3712574850299401
8.702,-0.3473053892215569
8.704,-0.3772455089820359
8.706,-0.281437125748503
8.708,-0.2754491017964072
8.71,-0.3532934131736527
8.712,-0.3473053892215569
8.714,-0.31736526946107785
8.716,-0.25748502994011974
8.718,-0.2934131736526946
8.72,-0.33532934131736525
8.722,-0.32335329341317365
8.724,-0.3413173652694611
8.726,-0.30538922155688625
8.728,-0.31736526946107785
8.73,-0.3413173652694611
8.732,-0.281437125748503
8.734,-0.2694610778443114
8.736,-0.2694610778443114
8.738,-0.2874251497005988
8.74,-0.2694610778443114
8.742,-0.23353293413173654
8.744,-0.25149700598802394
8.746,-0.2634730538922156
8.748,-0.25748502994011974
8.75,-0.31137724550898205
8.752,-0.3532934131736527
8.754,-0.2694610778443114
8.756,-0.2215568862275449
8.758000000000001,-0.2215568862275449
8.76,-0.19760479041916168
8.762,-0.23952095808383234
8.764,-0.2694610778443114
8.766,-0.18562874251497005
8.768,-0.15568862275449102
8.77,-0.23353293413173654
8.772,-0.2215568862275449
8.774000000000001,-0.2155688622754491
8.776,-0.25748502994011974
8.778,-0.2694610778443114
8.78,-0.19161676646706588
8.782,-0.15568862275449102
8.784,-0.19161676646706588
8.786,-0.17964071856287425
8.788,-0.17964071856287425
8.790000000000001,-0.25748502994011974
8.792,-0.19760479041916168
